0.000000,0.513884,0.518448,0.510809,0.506347,0.520587,0.520145,0.519196,0.196185,0.524157
1.000000,0.516104,0.518558,0.512292,0.507135,0.520925,0.527715,0.523643,0.156827,0.526276
2.000000,0.519630,0.519982,0.513793,0.508322,0.524131,0.530911,0.529970,0.134876,0.533141
3.000000,0.525903,0.520677,0.515412,0.509432,0.528181,0.530322,0.530825,0.152962,0.533989
4.000000,0.528734,0.520919,0.516848,0.510159,0.530543,0.529902,0.526635,0.167330,0.526106
5.000000,0.529547,0.521716,0.518315,0.511289,0.524637,0.526369,0.528773,0.093947,0.528225
6.000000,0.531175,0.523640,0.519878,0.512845,0.529025,0.530406,0.532535,0.121903,0.534413
7.000000,0.531039,0.525335,0.520917,0.514156,0.531809,0.531752,0.534416,0.121409,0.532463
8.000000,0.529903,0.527903,0.522218,0.515148,0.530037,0.531079,0.531167,0.110611,0.528310
9.000000,0.530717,0.529725,0.523510,0.516205,0.523118,0.527799,0.529115,0.179148,0.530175
10.000000,0.531327,0.530437,0.524443,0.517352,0.526662,0.527799,0.531851,0.161098,0.531276
11.000000,0.531276,0.531226,0.524892,0.518603,0.531556,0.532257,0.533903,0.184617,0.534158
12.000000,0.532260,0.531649,0.525816,0.519745,0.532990,0.534444,0.535357,0.189102,0.537379
13.000000,0.533819,0.531861,0.526269,0.520895,0.535606,0.535537,0.533989,0.205076,0.536108
14.000000,0.533531,0.532124,0.526521,0.521940,0.532231,0.532425,0.532279,0.122146,0.528734
15.000000,0.533226,0.532277,0.526996,0.522969,0.526915,0.531584,0.533561,0.145801,0.529751
16.000000,0.532582,0.531929,0.527784,0.523895,0.528856,0.532173,0.532450,0.126609,0.530937
17.000000,0.530378,0.531319,0.528327,0.524384,0.530712,0.529060,0.528260,0.145497,0.526360
18.000000,0.530751,0.532285,0.530094,0.525574,0.525903,0.534948,0.530141,0.151030,0.537973
19.000000,0.532073,0.532802,0.531264,0.526608,0.536450,0.544369,0.539376,0.171007,0.535345
20.000000,0.532056,0.532641,0.531539,0.527176,0.529447,0.529733,0.532279,0.189280,0.529666
21.000000,0.534870,0.533726,0.532476,0.527837,0.534256,0.541677,0.534416,0.180251,0.545008
22.000000,0.537481,0.533929,0.532789,0.528520,0.538643,0.537472,0.541257,0.143512,0.539413
23.000000,0.539074,0.534913,0.533387,0.529150,0.542735,0.543654,0.546832,0.109426,0.545940
24.000000,0.541914,0.536994,0.534559,0.530012,0.538854,0.546387,0.545233,0.092561,0.549542
25.000000,0.545965,0.539011,0.535644,0.531001,0.547249,0.547229,0.547413,0.123956,0.549924
26.000000,0.549932,0.542401,0.537165,0.532657,0.549021,0.560981,0.556392,0.192828,0.564841
27.000000,0.555069,0.546275,0.538797,0.534309,0.562310,0.562217,0.564857,0.181784,0.565096
28.000000,0.559544,0.549309,0.540797,0.536499,0.563196,0.566406,0.567764,0.185422,0.568317
29.000000,0.562875,0.552394,0.542598,0.538307,0.565305,0.565228,0.567764,0.170106,0.566198
30.000000,0.565893,0.555929,0.544285,0.539669,0.582518,0.581210,0.568961,0.316437,0.565011
31.000000,0.562434,0.556183,0.544955,0.540378,0.562184,0.563546,0.546302,0.339867,0.547550
32.000000,0.560790,0.557929,0.545929,0.541169,0.550793,0.553369,0.555964,0.210702,0.556874
33.000000,0.555111,0.557328,0.546120,0.541367,0.554506,0.554042,0.544335,0.264622,0.539922
34.000000,0.547008,0.554942,0.545968,0.541353,0.533581,0.534359,0.528260,0.311976,0.525682
35.000000,0.540244,0.553068,0.546040,0.541452,0.527337,0.529229,0.528773,0.243334,0.531192
36.000000,0.533938,0.548186,0.545294,0.540839,0.530206,0.533939,0.520051,0.277836,0.516020
37.000000,0.527242,0.544016,0.545145,0.540537,0.516242,0.520860,0.516289,0.210282,0.523394
38.000000,0.526835,0.540973,0.545141,0.540856,0.519406,0.534612,0.524840,0.252632,0.537888
39.000000,0.528251,0.537629,0.545012,0.540942,0.533412,0.538145,0.536982,0.231648,0.532760
40.000000,0.526267,0.533256,0.544592,0.540609,0.525818,0.527210,0.522617,0.306536,0.521275
41.000000,0.526301,0.530120,0.543151,0.540010,0.517972,0.516780,0.517315,0.200854,0.516189
42.000000,0.527318,0.527280,0.542605,0.539713,0.519237,0.525864,0.523386,0.209587,0.528479
43.000000,0.526199,0.526517,0.541922,0.539586,0.528097,0.529733,0.531509,0.218855,0.532294
44.000000,0.527767,0.528009,0.541475,0.539981,0.530501,0.539288,0.535998,0.130872,0.540600
45.000000,0.532582,0.529424,0.541246,0.540501,0.540837,0.542182,0.545019,0.131106,0.545347
46.000000,0.538396,0.532349,0.540267,0.540979,0.541385,0.544074,0.544729,0.111547,0.545262
47.000000,0.542956,0.535137,0.539577,0.541809,0.546321,0.548406,0.552031,0.138425,0.551280
48.000000,0.546584,0.536392,0.538682,0.542225,0.548431,0.551670,0.553613,0.141036,0.550432
49.000000,0.550212,0.538990,0.538309,0.543004,0.550456,0.555135,0.556990,0.152428,0.558739
50.000000,0.551687,0.542134,0.537695,0.543773,0.554674,0.558668,0.557503,0.266472,0.552721
51.000000,0.551907,0.545152,0.537636,0.543818,0.543874,0.548490,0.548611,0.148468,0.546364
52.000000,0.549534,0.546245,0.536763,0.543818,0.544634,0.544705,0.541770,0.134536,0.539413
53.000000,0.546449,0.546516,0.536517,0.543454,0.541512,0.541669,0.539419,0.202763,0.535006
54.000000,0.539719,0.544965,0.536487,0.542639,0.528518,0.533434,0.529457,0.215729,0.525089
55.000000,0.535108,0.543397,0.536411,0.541963,0.524975,0.526032,0.528516,0.149370,0.529666
56.000000,0.530870,0.541388,0.536869,0.540641,0.530543,0.533266,0.526037,0.165226,0.525174
57.000000,0.532243,0.540888,0.538013,0.540014,0.525143,0.544201,0.531680,0.260559,0.546279
58.000000,0.533904,0.540176,0.538284,0.539180,0.539487,0.541173,0.539547,0.198776,0.543312
59.000000,0.537439,0.538579,0.538784,0.538399,0.540710,0.543149,0.544805,0.162796,0.542761
60.000000,0.540439,0.537773,0.539954,0.537721,0.540331,0.541845,0.541428,0.120829,0.544669
61.000000,0.544787,0.537828,0.541490,0.537700,0.543368,0.546934,0.547392,0.166212,0.546915
62.000000,0.542414,0.537328,0.541787,0.536951,0.544381,0.544285,0.537666,0.178697,0.534413
63.000000,0.537888,0.535896,0.541206,0.536310,0.531893,0.530238,0.524327,0.254016,0.520681
64.000000,0.535082,0.536260,0.540613,0.536412,0.510462,0.525191,0.516289,0.227863,0.528734
65.000000,0.533692,0.537066,0.540231,0.536629,0.527084,0.535032,0.532364,0.135157,0.537718
66.000000,0.533006,0.538896,0.540142,0.537544,0.536112,0.543359,0.539547,0.122636,0.543482
67.000000,0.535142,0.538778,0.539833,0.538268,0.542356,0.547565,0.549295,0.145755,0.545092
68.000000,0.539719,0.538803,0.539490,0.538457,0.544212,0.545294,0.546045,0.158257,0.543567
69.000000,0.539176,0.537129,0.537854,0.538232,0.537040,0.537472,0.530141,0.216898,0.526021
70.000000,0.530124,0.531908,0.534841,0.537272,0.516200,0.514593,0.496451,0.309422,0.492456
71.000000,0.522428,0.527717,0.532773,0.536899,0.497131,0.503154,0.495169,0.242839,0.505001
72.000000,0.510731,0.522936,0.530132,0.535503,0.495275,0.495668,0.485079,0.328201,0.486608
73.000000,0.499763,0.519741,0.527818,0.534051,0.486838,0.487678,0.479008,0.369527,0.488727
74.000000,0.490710,0.514943,0.525602,0.532056,0.490044,0.489023,0.482770,0.265297,0.480759
75.000000,0.490880,0.510502,0.523784,0.530322,0.480721,0.491294,0.485293,0.231724,0.493304
76.000000,0.489049,0.505738,0.522317,0.528674,0.493166,0.493650,0.492860,0.237422,0.495847
77.000000,0.493372,0.502051,0.520414,0.527239,0.493756,0.506519,0.500214,0.205459,0.508222
78.000000,0.498915,0.499339,0.519071,0.526106,0.506919,0.519472,0.510304,0.242097,0.516443
79.000000,0.503729,0.497220,0.517175,0.524309,0.513415,0.512743,0.508764,0.250370,0.504831
80.000000,0.508408,0.499644,0.515776,0.523108,0.508353,0.516107,0.512527,0.124544,0.516698
81.000000,0.511934,0.500492,0.514104,0.522012,0.513837,0.516191,0.515605,0.190994,0.513477
82.000000,0.511019,0.502195,0.512566,0.520820,0.507931,0.506350,0.503463,0.196900,0.503645
83.000000,0.509163,0.504039,0.511890,0.519892,0.503080,0.505770,0.504489,0.164879,0.507162
84.000000,0.513282,0.508506,0.511724,0.519903,0.512150,0.522332,0.519025,0.232259,0.525428
85.000000,0.516774,0.512591,0.511546,0.520053,0.525650,0.532930,0.526977,0.300065,0.534158
86.000000,0.529081,0.520508,0.513123,0.521714,0.564462,0.580200,0.568448,0.559309,0.575013
87.000000,0.545236,0.528128,0.515089,0.522986,0.573912,0.583632,0.581103,0.344142,0.584421
88.000000,0.559146,0.534154,0.516746,0.524099,0.585555,0.584574,0.579393,0.300348,0.576708
89.000000,0.567283,0.540282,0.518751,0.524877,0.571591,0.569812,0.563061,0.262282,0.566113
90.000000,0.573741,0.545258,0.522451,0.525603,0.560327,0.565817,0.565712,0.171825,0.566452
91.000000,0.574589,0.551835,0.526163,0.526681,0.565305,0.575995,0.572125,0.211930,0.579251
92.000000,0.571860,0.558548,0.530372,0.527893,0.575768,0.578854,0.573065,0.225758,0.570775
93.000000,0.569435,0.564291,0.534165,0.529357,0.567499,0.567415,0.567507,0.211995,0.564587
94.000000,0.570843,0.569063,0.538784,0.530837,0.564462,0.571453,0.570842,0.280527,0.573148
95.000000,0.572487,0.573114,0.542853,0.532069,0.571043,0.576836,0.576657,0.218117,0.574674
96.000000,0.570453,0.572521,0.546514,0.532922,0.572815,0.573068,0.573108,0.133290,0.569080
97.000000,0.567266,0.569563,0.548845,0.533247,0.565980,0.569939,0.555024,0.216348,0.554840
98.000000,0.565723,0.567579,0.550867,0.533691,0.544043,0.553621,0.548268,0.194283,0.556874
99.000000,0.561994,0.566418,0.553350,0.534640,0.547249,0.550761,0.549979,0.129045,0.554501
100.000000,0.558196,0.565342,0.555300,0.536748,0.558809,0.560350,0.553741,0.187718,0.555687
101.000000,0.556976,0.563714,0.557775,0.538680,0.549865,0.561107,0.556306,0.168579,0.562977
102.000000,0.558476,0.562871,0.560709,0.541205,0.558260,0.563294,0.559624,0.130342,0.562341
103.000000,0.556527,0.561125,0.562708,0.543151,0.555729,0.557642,0.551903,0.184087,0.547127
104.000000,0.557306,0.559650,0.564356,0.545739,0.549106,0.555640,0.554596,0.155479,0.558400
105.000000,0.558188,0.558192,0.565653,0.547966,0.554674,0.557827,0.557161,0.190204,0.560095
106.000000,0.554526,0.555751,0.564136,0.549593,0.555434,0.554967,0.549295,0.154736,0.544669
107.000000,0.552789,0.555632,0.562597,0.551108,0.543874,0.549415,0.545190,0.160208,0.553653
108.000000,0.555823,0.556175,0.561877,0.552636,0.553071,0.562056,0.556648,0.119688,0.562299
109.000000,0.555704,0.556505,0.561462,0.554402,0.558218,0.557658,0.560752,0.082082,0.557806
110.000000,0.553128,0.555658,0.560500,0.555419,0.545393,0.548070,0.548268,0.149520,0.547211
111.000000,0.554077,0.554302,0.559008,0.556617,0.553746,0.554126,0.553570,0.145022,0.549415
112.000000,0.556349,0.554569,0.558720,0.558662,0.547081,0.561443,0.553057,0.167806,0.565011
113.000000,0.555552,0.555687,0.558406,0.560368,0.563618,0.561864,0.560581,0.143812,0.558315
114.000000,0.556993,0.556349,0.557999,0.561687,0.561930,0.564976,0.565028,0.127357,0.565011
115.000000,0.561994,0.557561,0.557876,0.562956,0.563196,0.571789,0.569219,0.149997,0.572216
116.000000,0.567045,0.560561,0.558156,0.562944,0.569355,0.580368,0.576229,0.182474,0.574674
117.000000,0.565070,0.560709,0.558171,0.561968,0.564124,0.563084,0.554904,0.235552,0.555136
118.000000,0.563935,0.559743,0.557959,0.561166,0.557881,0.556800,0.549679,0.256279,0.552636
119.000000,0.558917,0.557955,0.557230,0.560293,0.543706,0.544453,0.532364,0.212085,0.539922
120.000000,0.554797,0.558395,0.557027,0.559798,0.544296,0.551350,0.548183,0.184352,0.551619
121.000000,0.551610,0.559328,0.556815,0.559115,0.553493,0.557490,0.553741,0.134140,0.558739
122.000000,0.551619,0.558345,0.556457,0.558595,0.561762,0.563883,0.558871,0.193306,0.555179
123.000000,0.552704,0.558319,0.557003,0.558377,0.550287,0.559341,0.555879,0.183448,0.558061
124.000000,0.559417,0.559167,0.557758,0.558388,0.564462,0.573808,0.569645,0.173028,0.573487
125.000000,0.565960,0.560379,0.558970,0.558711,0.570537,0.585752,0.578196,0.232367,0.584336
126.000000,0.571334,0.561472,0.561017,0.559261,0.582180,0.582471,0.584865,0.091492,0.585608
127.000000,0.579302,0.565460,0.563085,0.560601,0.586652,0.591471,0.592732,0.122119,0.595016
128.000000,0.586150,0.569427,0.564585,0.561782,0.596946,0.599378,0.594271,0.183612,0.592304
129.000000,0.591999,0.575708,0.566831,0.563389,0.594668,0.599209,0.600257,0.189937,0.602729
130.000000,0.595728,0.580844,0.569620,0.564966,0.601924,0.604256,0.605558,0.189189,0.602984
131.000000,0.600288,0.585811,0.572570,0.566480,0.607492,0.617377,0.610859,0.299831,0.608408
132.000000,0.603950,0.591626,0.574985,0.568180,0.603696,0.608798,0.606755,0.202224,0.613324
133.000000,0.607154,0.596652,0.577486,0.570220,0.610150,0.612395,0.609597,0.185326,0.608323
134.000000,0.609137,0.600568,0.579867,0.572028,0.606564,0.612062,0.614579,0.199970,0.612646
135.000000,0.612155,0.603941,0.582160,0.573960,0.611880,0.615779,0.618384,0.147017,0.618071
136.000000,0.615070,0.607679,0.584576,0.576571,0.617702,0.623602,0.625139,0.164349,0.622987
137.000000,0.618427,0.611188,0.588324,0.579119,0.623523,0.625368,0.626422,0.146793,0.630107
138.000000,0.623462,0.615308,0.592367,0.581493,0.627067,0.631003,0.630782,0.173488,0.633497
139.000000,0.626920,0.618028,0.596868,0.583897,0.631201,0.630751,0.632802,0.174881,0.629937
140.000000,0.625428,0.618791,0.599818,0.586010,0.628923,0.627218,0.612056,0.325259,0.610612
141.000000,0.625733,0.620402,0.603106,0.588514,0.607830,0.619901,0.615648,0.210401,0.624513
142.000000,0.623241,0.620834,0.606230,0.590268,0.616942,0.617041,0.616674,0.159216,0.617647
143.000000,0.619198,0.621330,0.608991,0.592100,0.613061,0.611994,0.615092,0.087103,0.613282
144.000000,0.615350,0.621135,0.610851,0.593623,0.611880,0.613088,0.605216,0.174975,0.610697
145.000000,0.616545,0.620987,0.612464,0.595102,0.610108,0.623139,0.618298,0.185705,0.616588
146.000000,0.620546,0.623140,0.615409,0.597430,0.622511,0.643115,0.630868,0.213945,0.644516
147.000000,0.626733,0.624987,0.618088,0.600545,0.636011,0.644293,0.642326,0.150800,0.648585
148.000000,0.634760,0.626979,0.621143,0.603905,0.645208,0.652031,0.650534,0.191300,0.653416
149.000000,0.642490,0.628920,0.623474,0.607552,0.650101,0.651485,0.646875,0.265536,0.649347
150.000000,0.651585,0.634065,0.626428,0.611234,0.676342,0.679115,0.663873,0.503899,0.662061
151.000000,0.657094,0.638820,0.629611,0.615011,0.665964,0.673900,0.668320,0.252803,0.672063
152.000000,0.662011,0.644372,0.632603,0.618944,0.669339,0.672723,0.675502,0.196143,0.673165
153.000000,0.665893,0.650326,0.635828,0.622769,0.667229,0.674741,0.673194,0.214339,0.672826
154.000000,0.670147,0.656319,0.638727,0.626007,0.670773,0.669333,0.670201,0.122182,0.670622
155.000000,0.670300,0.660943,0.640965,0.628623,0.667060,0.668265,0.667478,0.136400,0.662824
156.000000,0.668622,0.662858,0.642999,0.631226,0.656176,0.663555,0.659598,0.136569,0.663672
157.000000,0.665774,0.663892,0.644440,0.633356,0.656092,0.659770,0.659769,0.133921,0.658925
158.000000,0.660620,0.663256,0.645118,0.635181,0.656092,0.656573,0.652159,0.147356,0.647059
159.000000,0.657552,0.663850,0.646385,0.636933,0.644195,0.655606,0.650534,0.128371,0.655281
160.000000,0.653687,0.661994,0.648029,0.638283,0.651198,0.649172,0.647285,0.126411,0.643499
161.000000,0.651822,0.660222,0.649521,0.639815,0.644279,0.653377,0.651732,0.078306,0.654348
162.000000,0.652789,0.659281,0.651827,0.641496,0.651367,0.659433,0.656434,0.111658,0.663757
163.000000,0.656552,0.658586,0.654456,0.643414,0.663432,0.671209,0.670543,0.118719,0.665876
164.000000,0.657967,0.657760,0.657039,0.645071,0.658792,0.666852,0.666952,0.121884,0.662358
165.000000,0.664426,0.659057,0.660000,0.646995,0.662082,0.678425,0.670500,0.188298,0.675793
166.000000,0.666698,0.659260,0.661059,0.648419,0.669592,0.669947,0.669859,0.106964,0.665706
167.000000,0.667054,0.659921,0.661907,0.649600,0.664445,0.665826,0.668149,0.115966,0.665537
168.000000,0.668164,0.662358,0.662807,0.650865,0.672713,0.674958,0.671441,0.118169,0.671427
169.000000,0.671749,0.664858,0.664354,0.652543,0.664360,0.677096,0.673279,0.139828,0.680285
170.000000,0.673428,0.668927,0.665460,0.654995,0.680138,0.683909,0.688157,0.105319,0.684184
171.000000,0.677361,0.672029,0.666126,0.657024,0.685791,0.691059,0.686533,0.201937,0.685370
172.000000,0.682955,0.675004,0.667143,0.659552,0.688070,0.689713,0.693288,0.200771,0.693507
173.000000,0.687252,0.677708,0.668147,0.662207,0.689757,0.692741,0.687986,0.183087,0.692914
174.000000,0.692880,0.682315,0.670037,0.665464,0.689504,0.703844,0.696195,0.192913,0.708425
175.000000,0.698440,0.685934,0.672495,0.668644,0.706801,0.709732,0.713980,0.167552,0.711985
176.000000,0.702441,0.689901,0.674580,0.670673,0.707729,0.707124,0.710133,0.111838,0.705374
177.000000,0.704272,0.693613,0.676767,0.672476,0.706801,0.706535,0.705772,0.132262,0.702661
178.000000,0.707891,0.697572,0.679965,0.674395,0.702455,0.708049,0.708800,0.110790,0.711010
179.000000,0.711824,0.702352,0.683605,0.677020,0.705619,0.724872,0.714835,0.153678,0.728090
180.000000,0.714130,0.706285,0.687606,0.679068,0.726038,0.726722,0.724070,0.113652,0.723512
181.000000,0.716198,0.709319,0.690674,0.680524,0.719288,0.721339,0.720479,0.197518,0.715715
182.000000,0.718791,0.711532,0.693268,0.681939,0.711104,0.713769,0.718769,0.141970,0.715630
183.000000,0.722444,0.715168,0.696438,0.683821,0.714647,0.731432,0.720906,0.226601,0.729276
184.000000,0.722088,0.716956,0.699636,0.685677,0.725996,0.728774,0.729927,0.187735,0.726310
185.000000,0.723241,0.718685,0.702310,0.687892,0.724435,0.724031,0.726037,0.103494,0.729276
186.000000,0.724809,0.720503,0.705202,0.689888,0.722368,0.721945,0.725951,0.089054,0.723555
187.000000,0.725165,0.721978,0.707796,0.691838,0.706885,0.716376,0.714493,0.138833,0.717410
188.000000,0.725233,0.723839,0.710705,0.694589,0.711272,0.726890,0.720650,0.150375,0.729615
189.000000,0.726064,0.724076,0.713214,0.697096,0.725110,0.724872,0.723301,0.145465,0.730463
190.000000,0.725826,0.724534,0.715409,0.699915,0.725447,0.724367,0.726806,0.134652,0.728090
191.000000,0.729098,0.726954,0.718137,0.702767,0.725278,0.735392,0.729115,0.171628,0.739914
192.000000,0.732107,0.728636,0.720084,0.705057,0.726502,0.732652,0.732159,0.183260,0.732455
193.000000,0.731514,0.728373,0.721771,0.707083,0.727050,0.734460,0.728516,0.189759,0.726649
194.000000,0.730802,0.728433,0.722695,0.709235,0.726966,0.729918,0.725096,0.205521,0.726903
195.000000,0.733395,0.729611,0.724148,0.711410,0.731522,0.735722,0.739376,0.162360,0.741058
196.000000,0.737133,0.733116,0.726810,0.714507,0.735403,0.761040,0.744934,0.208761,0.758603
197.000000,0.744109,0.738108,0.730043,0.717900,0.748228,0.761544,0.753826,0.131739,0.767333
198.000000,0.751314,0.741414,0.732626,0.720941,0.760378,0.765329,0.765284,0.162609,0.762672
199.000000,0.760434,0.745618,0.734847,0.724015,0.769828,0.781731,0.775887,0.245524,0.772504
200.000000,0.765977,0.749686,0.737110,0.726835,0.766453,0.767096,0.766567,0.248556,0.768774
201.000000,0.770046,0.753590,0.740272,0.729954,0.770587,0.774497,0.773151,0.230690,0.778946
202.000000,0.772809,0.758459,0.743548,0.732876,0.772022,0.780133,0.780847,0.128738,0.781149
203.000000,0.777208,0.764261,0.746317,0.735934,0.788010,0.791908,0.784865,0.210356,0.784667
204.000000,0.773953,0.767194,0.747813,0.737528,0.772528,0.770124,0.754681,0.291261,0.756230
205.000000,0.773979,0.769978,0.749794,0.739425,0.751181,0.767785,0.752929,0.218489,0.768902
206.000000,0.773674,0.771860,0.752488,0.741826,0.769322,0.774161,0.775032,0.138340,0.777420
207.000000,0.772063,0.772436,0.755272,0.744174,0.775523,0.773404,0.777580,0.098416,0.773097
208.000000,0.772004,0.774606,0.758010,0.746619,0.771515,0.781226,0.779478,0.153177,0.784370
209.000000,0.773597,0.773775,0.759697,0.747823,0.786028,0.785768,0.764771,0.209593,0.764197
210.000000,0.771029,0.772504,0.761095,0.748908,0.759281,0.760871,0.755537,0.211659,0.756060
211.000000,0.767249,0.770461,0.762025,0.750335,0.753502,0.757128,0.749902,0.194469,0.758518
212.000000,0.768130,0.770097,0.764278,0.752397,0.761348,0.772142,0.768404,0.146622,0.777505
213.000000,0.763587,0.767795,0.766028,0.753477,0.773456,0.771049,0.767507,0.197335,0.761655
214.000000,0.760468,0.767033,0.767113,0.754220,0.764934,0.769198,0.752202,0.249798,0.748601
215.000000,0.754687,0.762858,0.766418,0.754149,0.756455,0.758012,0.705652,0.483949,0.727157
216.000000,0.747889,0.757569,0.764714,0.754181,0.721903,0.728657,0.729201,0.298554,0.724530
217.000000,0.737710,0.752920,0.762678,0.754488,0.722283,0.721844,0.725233,0.176272,0.726606
218.000000,0.727013,0.745300,0.759953,0.753773,0.720132,0.719489,0.708850,0.245132,0.708171
219.000000,0.720927,0.740698,0.757236,0.753364,0.702160,0.714348,0.708786,0.252284,0.718173
220.000000,0.719317,0.737002,0.754753,0.753064,0.714985,0.715283,0.718085,0.197548,0.719105
221.000000,0.719673,0.733781,0.752121,0.752611,0.718360,0.723947,0.717743,0.231363,0.726310
222.000000,0.717189,0.727450,0.748773,0.752002,0.723507,0.724199,0.716032,0.162289,0.714189
223.000000,0.717859,0.722436,0.745116,0.751497,0.709247,0.712718,0.708217,0.166751,0.711519
224.000000,0.715706,0.718317,0.742675,0.750848,0.712302,0.713937,0.710611,0.161151,0.707408
225.000000,0.715401,0.717359,0.740108,0.750065,0.709247,0.714778,0.717401,0.164822,0.717579
226.000000,0.714367,0.717020,0.737294,0.748816,0.718022,0.716629,0.715519,0.135772,0.721139
227.000000,0.714943,0.716066,0.734493,0.747141,0.714310,0.712255,0.708337,0.202214,0.717071
228.000000,0.716054,0.716956,0.731128,0.745621,0.714436,0.721171,0.716973,0.170255,0.717071
229.000000,0.715647,0.715676,0.728187,0.743383,0.712622,0.713601,0.707653,0.179885,0.705374
230.000000,0.711985,0.713693,0.725348,0.741066,0.702413,0.702792,0.701941,0.120349,0.699271
231.000000,0.707611,0.710989,0.722385,0.738410,0.700304,0.700479,0.697392,0.162450,0.699271
232.000000,0.704458,0.709701,0.718575,0.735749,0.693765,0.701193,0.691834,0.222957,0.701305
233.000000,0.702695,0.709374,0.715905,0.733202,0.698616,0.711246,0.707567,0.200801,0.708256
234.000000,0.701797,0.708722,0.713519,0.731357,0.697519,0.705442,0.701838,0.239587,0.700882
235.000000,0.697593,0.704789,0.711074,0.728335,0.704354,0.702750,0.683540,0.393163,0.678251
236.000000,0.691778,0.699695,0.708357,0.724761,0.678873,0.678106,0.668320,0.457521,0.670198
237.000000,0.686557,0.695508,0.705787,0.721498,0.668917,0.681050,0.676101,0.243796,0.675199
238.000000,0.677352,0.690024,0.703490,0.717427,0.669212,0.669257,0.666994,0.226946,0.662231
239.000000,0.671402,0.686599,0.701138,0.714324,0.661154,0.670031,0.667978,0.204108,0.671131
240.000000,0.670537,0.684065,0.698879,0.711587,0.665204,0.670199,0.669004,0.240259,0.673928
241.000000,0.671894,0.681836,0.696413,0.708869,0.672207,0.681134,0.681231,0.220559,0.676979
242.000000,0.672165,0.679361,0.694531,0.705504,0.674823,0.675078,0.673450,0.185960,0.676555
243.000000,0.677030,0.677191,0.693283,0.703001,0.673473,0.682900,0.676870,0.319372,0.686557
244.000000,0.682929,0.677166,0.692944,0.701401,0.682079,0.697788,0.689098,0.271646,0.700627
245.000000,0.690982,0.680759,0.692774,0.700969,0.699291,0.712087,0.707311,0.335558,0.714189
246.000000,0.697661,0.684777,0.692236,0.700497,0.714057,0.714274,0.713296,0.162080,0.710375
247.000000,0.704967,0.688566,0.692037,0.700047,0.707982,0.707713,0.710731,0.052358,0.713087
248.000000,0.710070,0.693550,0.691787,0.700177,0.710682,0.713012,0.716845,0.094865,0.712070
249.000000,0.713324,0.698127,0.692363,0.700134,0.709332,0.712743,0.716888,0.090246,0.716901
250.000000,0.712333,0.701657,0.692861,0.699805,0.712749,0.717049,0.710543,0.150485,0.709230
251.000000,0.712519,0.705090,0.693463,0.699305,0.705957,0.710110,0.711714,0.112932,0.711307
252.000000,0.709773,0.707370,0.693365,0.698811,0.702708,0.706350,0.701411,0.157589,0.699356
253.000000,0.706840,0.708455,0.692823,0.698340,0.699249,0.700858,0.700344,0.144186,0.697406
254.000000,0.702483,0.707904,0.692535,0.697930,0.695115,0.695307,0.694040,0.195327,0.695118
255.000000,0.702060,0.707196,0.693978,0.697582,0.696380,0.701951,0.699889,0.175941,0.707111
256.000000,0.701161,0.706840,0.695809,0.697104,0.700388,0.705821,0.705643,0.152971,0.706815
257.000000,0.702839,0.706306,0.697436,0.696793,0.706210,0.710236,0.707482,0.189447,0.707747
258.000000,0.704738,0.705789,0.699669,0.696454,0.706463,0.706956,0.709705,0.157891,0.706899
259.000000,0.704263,0.703373,0.700750,0.696033,0.706210,0.707713,0.696708,0.143058,0.692745
260.000000,0.705747,0.703903,0.702780,0.696542,0.692119,0.709563,0.699615,0.172460,0.714528
261.000000,0.708781,0.704971,0.705031,0.697299,0.714900,0.728741,0.724241,0.218861,0.721987
262.000000,0.711409,0.707124,0.707247,0.697952,0.717600,0.719825,0.721248,0.178910,0.720885
263.000000,0.713240,0.708989,0.708722,0.698212,0.721228,0.722853,0.722189,0.178013,0.716054
264.000000,0.718139,0.711201,0.709552,0.698757,0.713635,0.717302,0.718854,0.171021,0.717240
265.000000,0.720783,0.713265,0.710231,0.700407,0.718005,0.724619,0.723600,0.192081,0.727750
266.000000,0.719775,0.714278,0.710559,0.701965,0.716250,0.722264,0.719239,0.239948,0.716944
267.000000,0.715901,0.713655,0.709981,0.702842,0.708952,0.710909,0.705943,0.302588,0.701517
268.000000,0.710086,0.711663,0.708726,0.703667,0.696760,0.695937,0.689440,0.203925,0.686981
269.000000,0.708374,0.713256,0.708315,0.704919,0.689251,0.704433,0.693801,0.176244,0.708679
270.000000,0.702382,0.711582,0.707743,0.705714,0.699966,0.698797,0.699189,0.175588,0.697788
271.000000,0.699797,0.709786,0.707378,0.706616,0.696507,0.704433,0.703891,0.121126,0.704018
272.000000,0.699551,0.707726,0.707425,0.707407,0.694735,0.704853,0.697649,0.141286,0.700288
273.000000,0.699246,0.704666,0.706827,0.707370,0.694398,0.701741,0.690466,0.242416,0.685455
274.000000,0.700398,0.704386,0.707794,0.707830,0.686298,0.710741,0.694741,0.352065,0.714443
275.000000,0.702797,0.702589,0.707927,0.707684,0.709163,0.713685,0.712954,0.229791,0.709781
276.000000,0.708832,0.704314,0.709296,0.708477,0.707391,0.730928,0.716888,0.275241,0.734192
277.000000,0.718376,0.708963,0.711309,0.709641,0.737302,0.743881,0.740239,0.223981,0.748008
278.000000,0.728937,0.714091,0.712877,0.710514,0.745697,0.743376,0.739974,0.189389,0.738261
279.000000,0.734141,0.717270,0.715263,0.711300,0.735319,0.741021,0.742027,0.176593,0.740464
280.000000,0.740617,0.721707,0.716645,0.712398,0.741478,0.743965,0.745960,0.138535,0.742160
281.000000,0.742507,0.725670,0.717728,0.713475,0.732281,0.743343,0.737922,0.183736,0.743643
282.000000,0.742897,0.730637,0.719181,0.715162,0.741309,0.745395,0.747670,0.125281,0.749958
283.000000,0.747745,0.738341,0.721504,0.717332,0.751434,0.758096,0.761009,0.195622,0.762502
284.000000,0.751254,0.742698,0.723542,0.719428,0.755316,0.763731,0.762719,0.205272,0.758010
285.000000,0.755425,0.748021,0.725305,0.721292,0.755316,0.765666,0.761693,0.241508,0.763011
286.000000,0.757569,0.750038,0.727176,0.722877,0.761390,0.761040,0.760752,0.289632,0.754365
287.000000,0.760485,0.751691,0.730327,0.724770,0.752784,0.763815,0.756905,0.378664,0.764536
288.000000,0.763943,0.755844,0.734968,0.727200,0.771347,0.778535,0.766310,0.399622,0.779793
289.000000,0.770368,0.760811,0.739041,0.730446,0.774595,0.792363,0.781873,0.386159,0.790134
290.000000,0.776666,0.766045,0.743876,0.733112,0.786407,0.789150,0.788756,0.202311,0.794499
291.000000,0.786345,0.771957,0.748813,0.735804,0.791934,0.803600,0.800000,0.271801,0.802763
292.000000,0.793872,0.777178,0.753907,0.738514,0.797503,0.807469,0.806413,0.300199,0.802170
293.000000,0.800280,0.782111,0.760226,0.741706,0.803577,0.811338,0.813681,0.228371,0.811833
294.000000,0.803704,0.787036,0.764867,0.744707,0.810159,0.812600,0.812484,0.208795,0.807255
295.000000,0.806747,0.791706,0.769864,0.747439,0.804590,0.808352,0.809442,0.184696,0.809714
296.000000,0.807171,0.796758,0.773398,0.750370,0.807965,0.807259,0.804617,0.209668,0.804882
297.000000,0.806967,0.800420,0.776055,0.753691,0.801215,0.798722,0.800000,0.147691,0.801153
298.000000,0.801916,0.801098,0.778471,0.757011,0.800877,0.799731,0.792304,0.219653,0.786574
299.000000,0.797372,0.800538,0.780675,0.759540,0.774553,0.784086,0.776657,0.218807,0.784540
300.000000,0.790473,0.798610,0.782328,0.762121,0.785690,0.784927,0.777084,0.201488,0.775216
301.000000,0.787116,0.797144,0.784550,0.764923,0.771853,0.783077,0.781958,0.170125,0.788100
302.000000,0.785591,0.796279,0.786729,0.768031,0.787209,0.790647,0.795212,0.145715,0.793524
303.000000,0.788608,0.795262,0.788687,0.771905,0.790584,0.801245,0.800257,0.169461,0.801661
304.000000,0.790642,0.794007,0.790522,0.774580,0.798853,0.796703,0.795383,0.169415,0.794711
305.000000,0.796915,0.793694,0.792700,0.777807,0.791512,0.801413,0.795554,0.215307,0.806577
306.000000,0.801729,0.794423,0.795590,0.780406,0.809652,0.812348,0.809662,0.285386,0.812172
307.000000,0.803729,0.794660,0.797540,0.782257,0.811002,0.811506,0.805729,0.185289,0.803526
308.000000,0.805764,0.797186,0.799142,0.784709,0.806531,0.811506,0.816161,0.204420,0.811833
309.000000,0.809663,0.800153,0.800345,0.787167,0.812310,0.821415,0.820436,0.220385,0.814206
310.000000,0.812324,0.804619,0.801615,0.789758,0.811171,0.821768,0.820949,0.189227,0.819885
311.000000,0.817003,0.809366,0.803255,0.792822,0.820452,0.836151,0.829927,0.216848,0.835565
312.000000,0.822563,0.813146,0.804713,0.795535,0.837327,0.839011,0.833861,0.221749,0.831327
313.000000,0.827988,0.816876,0.806069,0.798083,0.838508,0.844142,0.840188,0.183219,0.838956
314.000000,0.833158,0.821410,0.807709,0.800818,0.829143,0.836488,0.838136,0.152988,0.840058
315.000000,0.839803,0.826064,0.809879,0.803821,0.838086,0.853730,0.848739,0.279379,0.853111
316.000000,0.841821,0.829412,0.811917,0.806864,0.866267,0.868828,0.846088,0.215718,0.845652
317.000000,0.841566,0.832065,0.813362,0.809048,0.841377,0.840945,0.833262,0.168425,0.830056
318.000000,0.841109,0.834548,0.815867,0.810944,0.825008,0.837581,0.834032,0.176296,0.836667
319.000000,0.840837,0.836998,0.818575,0.812563,0.834796,0.834132,0.837879,0.204829,0.838701
320.000000,0.836532,0.838167,0.821393,0.813799,0.832180,0.841030,0.834203,0.251911,0.831582
321.000000,0.834599,0.838210,0.823788,0.814906,0.824080,0.836403,0.834288,0.245234,0.835989
322.000000,0.838040,0.839803,0.826475,0.816410,0.839690,0.841955,0.844121,0.183481,0.847262
323.000000,0.842109,0.841609,0.829242,0.817915,0.840618,0.855244,0.850962,0.251348,0.857010
324.000000,0.845601,0.843219,0.832315,0.819546,0.856227,0.859631,0.858743,0.195424,0.856162
325.000000,0.852958,0.844745,0.835404,0.821501,0.850827,0.865001,0.862249,0.174132,0.868368
326.000000,0.861265,0.847932,0.838672,0.823922,0.868883,0.871226,0.870800,0.128719,0.877522
327.000000,0.865299,0.851670,0.841867,0.826132,0.871330,0.868618,0.873108,0.178391,0.867435
328.000000,0.872029,0.857069,0.845809,0.829601,0.865086,0.884683,0.876699,0.184437,0.890659
329.000000,0.876216,0.860909,0.848953,0.832686,0.890145,0.887375,0.884310,0.198903,0.877098
330.000000,0.870436,0.861697,0.849932,0.834828,0.871161,0.868870,0.842411,0.383772,0.839464
331.000000,0.861163,0.861214,0.849712,0.836263,0.843233,0.841114,0.825395,0.273636,0.831158
332.000000,0.856552,0.860926,0.850364,0.837958,0.834290,0.851459,0.845062,0.218876,0.844380
333.000000,0.844550,0.858290,0.849949,0.838925,0.835893,0.834385,0.829500,0.337092,0.830649
334.000000,0.833768,0.854992,0.849106,0.839874,0.829649,0.830768,0.827790,0.226981,0.823190
335.000000,0.830412,0.850424,0.847584,0.840411,0.820958,0.826394,0.827875,0.198739,0.822682
336.000000,0.832429,0.846796,0.847364,0.841380,0.810327,0.838683,0.820949,0.255129,0.841244
337.000000,0.839227,0.847889,0.849780,0.843875,0.867364,0.895786,0.870799,0.455817,0.878369
338.000000,0.850737,0.847644,0.852356,0.846420,0.882636,0.886954,0.877640,0.305412,0.888201
339.000000,0.858552,0.846160,0.853534,0.848022,0.877742,0.879468,0.868918,0.174806,0.862265
340.000000,0.867401,0.848907,0.855302,0.849590,0.860614,0.860459,0.860539,0.198566,0.866927
341.000000,0.874843,0.853636,0.857425,0.851020,0.865424,0.872487,0.871997,0.179416,0.878454
342.000000,0.877454,0.858340,0.859633,0.853023,0.882383,0.887375,0.889867,0.183414,0.891422
343.000000,0.875945,0.863341,0.860815,0.854413,0.889217,0.887291,0.888072,0.129267,0.880658
344.000000,0.877657,0.868105,0.861549,0.855439,0.877236,0.874590,0.868328,0.139601,0.870826
345.000000,0.878030,0.872716,0.861570,0.855961,0.865424,0.865338,0.866524,0.152352,0.868791
346.000000,0.875759,0.875301,0.861048,0.856676,0.864833,0.869375,0.871826,0.098102,0.867096
347.000000,0.870198,0.873826,0.860858,0.857795,0.862470,0.865926,0.867636,0.103716,0.863621
348.000000,0.870639,0.873292,0.860468,0.859335,0.866520,0.877786,0.873279,0.095155,0.882862
349.000000,0.872233,0.874945,0.860553,0.860671,0.879936,0.884599,0.885291,0.131590,0.878793
350.000000,0.874725,0.876377,0.862642,0.862327,0.876561,0.884431,0.884481,0.135694,0.881251
351.000000,0.878844,0.877301,0.865469,0.864050,0.881201,0.882917,0.887131,0.110935,0.887693
352.000000,0.884438,0.877318,0.867829,0.865528,0.884745,0.888468,0.892689,0.145904,0.891592
353.000000,0.888693,0.879666,0.871504,0.867099,0.889470,0.897552,0.897820,0.137319,0.904136
354.000000,0.892287,0.882260,0.875182,0.868452,0.896642,0.894608,0.899957,0.122630,0.896762
355.000000,0.894677,0.884701,0.878708,0.869280,0.893942,0.891580,0.897392,0.091659,0.893202
356.000000,0.897949,0.888396,0.881849,0.870164,0.889723,0.897132,0.900128,0.105716,0.904052
357.000000,0.899949,0.892194,0.883010,0.871303,0.898414,0.897721,0.902608,0.090772,0.901593
358.000000,0.902034,0.895364,0.884328,0.872100,0.897317,0.907646,0.904831,0.118403,0.914562
359.000000,0.908001,0.900144,0.887544,0.873750,0.912420,0.921524,0.923814,0.115156,0.926598
360.000000,0.915003,0.904840,0.890609,0.876708,0.928873,0.931533,0.932022,0.126661,0.928208
361.000000,0.918444,0.908196,0.892749,0.879711,0.922967,0.923121,0.926977,0.116406,0.921258
362.000000,0.925784,0.912867,0.895092,0.882842,0.913348,0.932879,0.924669,0.143668,0.938295
363.000000,0.932107,0.917071,0.898368,0.886693,0.940432,0.950627,0.951005,0.203440,0.946177
364.000000,0.940075,0.924038,0.903149,0.891467,0.943048,0.959374,0.945105,0.167542,0.966435
365.000000,0.947737,0.931370,0.908035,0.896262,0.972072,0.969047,0.966396,0.218133,0.966520
366.000000,0.954009,0.936226,0.912311,0.899975,0.961441,0.958449,0.951347,0.280889,0.952619
367.000000,0.958824,0.942304,0.917249,0.902774,0.949882,0.957524,0.955451,0.155896,0.962367
368.000000,0.965893,0.949000,0.922182,0.905885,0.954607,0.974430,0.962121,0.206958,0.981522
369.000000,0.972606,0.956340,0.928242,0.910476,0.987597,0.995794,0.993159,0.297445,1.000000
370.000000,0.978335,0.963036,0.933938,0.914751,1.000000,1.000000,1.000000,0.178201,0.995169
371.000000,0.979403,0.966706,0.937451,0.917401,0.988694,0.987888,0.959726,0.245042,0.957959
372.000000,0.983607,0.971215,0.942041,0.920467,0.956126,0.977795,0.968961,0.185026,0.983387
373.000000,0.982963,0.974428,0.945749,0.923722,0.976038,0.974178,0.975374,0.126061,0.978301
374.000000,0.979335,0.975971,0.950004,0.927423,0.972241,0.975103,0.980847,0.149967,0.981861
375.000000,0.978403,0.978369,0.954869,0.931480,0.979413,0.985701,0.990594,0.125510,0.990507
376.000000,0.984387,0.981895,0.959061,0.935506,0.990888,0.992009,0.992048,0.149543,0.987879
377.000000,0.984743,0.984175,0.963240,0.939558,0.985994,0.989066,0.987944,0.141839,0.985167
378.000000,0.986998,0.984981,0.966990,0.943115,0.981016,0.984271,0.984267,0.089811,0.989575
379.000000,0.986811,0.983073,0.969707,0.946519,0.982113,0.979897,0.986917,0.084286,0.980929
380.000000,0.985320,0.981861,0.972449,0.949912,0.973422,0.980318,0.984438,0.134425,0.983048
381.000000,0.985336,0.984862,0.975784,0.953255,0.979582,0.980991,0.984951,0.103779,0.987964
382.000000,0.983184,0.983963,0.977589,0.956015,0.969288,0.974682,0.972723,0.118437,0.974402
383.000000,0.977928,0.982463,0.978445,0.957987,0.976544,0.973505,0.969560,0.132856,0.963299
384.000000,0.977861,0.982336,0.979153,0.960781,0.967347,0.976112,0.977426,0.158237,0.980590
385.000000,0.973555,0.979437,0.978903,0.963059,0.969541,0.972496,0.963137,0.180259,0.961519
386.000000,0.974470,0.979903,0.980899,0.966008,0.967094,0.986458,0.976229,0.170365,0.992541
387.000000,0.975470,0.979327,0.981751,0.968602,0.991225,0.999327,0.986319,0.122478,0.979403
388.000000,0.979522,0.978725,0.981853,0.970902,0.973338,0.978947,0.977700,0.139448,0.983557
389.000000,0.980302,0.979081,0.981077,0.972832,0.977557,0.979267,0.984352,0.085373,0.984489
390.000000,0.985574,0.979564,0.980713,0.974821,0.985066,0.989318,0.990167,0.139200,0.987879
391.000000,0.983624,0.979047,0.981955,0.976872,0.984644,0.981580,0.985891,0.193850,0.982794
392.000000,0.984726,0.980098,0.982031,0.978426,0.982788,0.983514,0.989312,0.153320,0.984913
393.000000,0.982658,0.981090,0.981777,0.979327,0.975194,0.974514,0.978198,0.106046,0.973216
394.000000,0.977979,0.979141,0.980738,0.979149,0.968782,0.967449,0.966225,0.160230,0.961095
395.000000,0.974063,0.979819,0.979628,0.979208,0.955704,0.970056,0.967850,0.133972,0.968300
396.000000,0.970131,0.976877,0.978390,0.979559,0.968866,0.970982,0.969303,0.095243,0.963129
397.000000,0.958671,0.971699,0.975513,0.978400,0.952076,0.951215,0.935186,0.222818,0.927615
398.000000,0.947177,0.964918,0.971821,0.976208,0.916723,0.923627,0.916289,0.212308,0.915748
399.000000,0.944499,0.961239,0.970160,0.974465,0.917482,0.943057,0.924156,0.160959,0.947703
400.000000,0.934989,0.954526,0.967045,0.971984,0.943385,0.940449,0.919282,0.259612,0.920749
401.000000,0.923140,0.946635,0.962841,0.970181,0.903054,0.912681,0.903207,0.268058,0.903882
402.000000,0.917410,0.938040,0.959069,0.967367,0.908117,0.905291,0.901240,0.159375,0.898966
403.000000,0.916969,0.932073,0.956582,0.965209,0.894954,0.907562,0.906969,0.126011,0.913545
404.000000,0.911019,0.927759,0.953450,0.963078,0.917314,0.916814,0.922788,0.147772,0.917952
405.000000,0.907730,0.921360,0.950589,0.960205,0.910310,0.912524,0.909277,0.174812,0.904306
406.000000,0.907239,0.915189,0.946033,0.957323,0.908370,0.907393,0.908251,0.125111,0.901424
407.000000,0.903628,0.910519,0.941109,0.953848,0.904657,0.901926,0.885592,0.186841,0.880912
408.000000,0.900763,0.908866,0.936892,0.950836,0.877236,0.895113,0.886447,0.243969,0.899220
409.000000,0.895898,0.903458,0.932349,0.947926,0.899848,0.899235,0.894912,0.175354,0.893626
410.000000,0.896474,0.902102,0.928314,0.945398,0.895208,0.902935,0.903463,0.168472,0.907188
411.000000,0.898051,0.902645,0.924640,0.942776,0.903561,0.903777,0.907225,0.117002,0.909307
412.000000,0.903577,0.903602,0.920821,0.940580,0.907020,0.904365,0.906542,0.114480,0.908544
413.000000,0.903882,0.902322,0.917198,0.938495,0.899342,0.898646,0.903035,0.111103,0.900746
414.000000,0.908137,0.902017,0.914888,0.936306,0.902211,0.910506,0.911501,0.103754,0.914901
415.000000,0.912155,0.904314,0.912837,0.935164,0.918495,0.929178,0.927747,0.175871,0.927276
416.000000,0.914409,0.906230,0.910709,0.932765,0.923304,0.920599,0.924070,0.106876,0.920580
417.000000,0.916443,0.910010,0.910264,0.930742,0.913939,0.917487,0.924327,0.094048,0.918715
418.000000,0.922563,0.913223,0.911044,0.929002,0.917989,0.925057,0.926635,0.096491,0.931344
419.000000,0.922173,0.915155,0.909307,0.926618,0.924485,0.923963,0.915605,0.147492,0.912951
420.000000,0.919359,0.915757,0.908929,0.924128,0.918410,0.917487,0.918854,0.079178,0.913206
421.000000,0.912578,0.913494,0.908069,0.920924,0.909214,0.908319,0.889012,0.210763,0.886676
422.000000,0.907137,0.911790,0.907696,0.917811,0.880442,0.885609,0.881146,0.173233,0.891507
423.000000,0.892778,0.907671,0.904997,0.914022,0.878080,0.875347,0.861479,0.297060,0.859552
424.000000,0.881929,0.902051,0.902034,0.910609,0.857492,0.862057,0.862078,0.194623,0.858705
425.000000,0.872216,0.895787,0.900051,0.907154,0.851586,0.859113,0.849337,0.198965,0.864638
426.000000,0.869588,0.891083,0.898657,0.904167,0.851586,0.867440,0.859342,0.246048,0.873538
427.000000,0.863045,0.885091,0.897550,0.901873,0.864833,0.862730,0.863873,0.198039,0.858790
428.000000,0.863892,0.878335,0.895779,0.900141,0.850489,0.861384,0.856092,0.163578,0.863790
429.000000,0.870520,0.876225,0.895690,0.898279,0.863399,0.890739,0.870030,0.220404,0.891846
430.000000,0.875911,0.874063,0.894910,0.897307,0.891411,0.892337,0.893715,0.197490,0.891592
431.000000,0.879166,0.874377,0.893935,0.896838,0.892845,0.891496,0.891065,0.160787,0.889812
432.000000,0.884336,0.873690,0.892740,0.896361,0.887951,0.890739,0.888927,0.339689,0.884641
433.000000,0.884048,0.873970,0.890820,0.894654,0.875970,0.873581,0.859940,0.237498,0.862350
434.000000,0.876623,0.873572,0.887811,0.892547,0.856817,0.854824,0.858914,0.298533,0.854721
435.000000,0.871453,0.873682,0.884735,0.891261,0.851671,0.865254,0.851218,0.245449,0.865740
436.000000,0.863621,0.871393,0.881238,0.889569,0.866014,0.863824,0.856263,0.192245,0.850653
437.000000,0.859400,0.871868,0.878479,0.888990,0.846861,0.861384,0.856862,0.178107,0.863536
438.000000,0.859620,0.871834,0.875085,0.887797,0.850489,0.858441,0.855926,0.230242,0.863451
439.000000,0.856535,0.866579,0.871402,0.885986,0.859349,0.856674,0.833262,0.343856,0.839295
440.000000,0.847567,0.859510,0.866787,0.883110,0.837074,0.838843,0.822147,0.313508,0.820902
441.000000,0.841973,0.852797,0.863587,0.880223,0.807965,0.821263,0.806071,0.288113,0.822682
442.000000,0.832972,0.846186,0.859938,0.877222,0.824418,0.821936,0.817187,0.237330,0.818529
443.000000,0.821478,0.840549,0.857260,0.874063,0.817077,0.815880,0.806841,0.273803,0.805984
444.000000,0.812307,0.834421,0.853996,0.870015,0.801721,0.807637,0.800086,0.295407,0.793440
445.000000,0.808425,0.827996,0.850839,0.865822,0.787293,0.796451,0.776400,0.413467,0.801492
446.000000,0.799780,0.820876,0.846135,0.861118,0.790078,0.788376,0.777084,0.518400,0.779454
447.000000,0.788354,0.810663,0.841265,0.855874,0.768394,0.773404,0.757674,0.530758,0.761400
448.000000,0.769147,0.795313,0.833573,0.848494,0.753037,0.759526,0.714664,0.505763,0.709951
449.000000,0.752585,0.782446,0.824513,0.841750,0.720553,0.730760,0.713980,0.654603,0.710629
450.000000,0.741753,0.775089,0.817300,0.836221,0.692119,0.744638,0.693202,0.594692,0.747330
451.000000,0.740583,0.770181,0.811489,0.832452,0.718782,0.778198,0.728431,0.541232,0.773606
452.000000,0.742939,0.765647,0.805916,0.828508,0.794803,0.803684,0.771783,0.463848,0.773182
453.000000,0.758196,0.763672,0.802111,0.826064,0.773118,0.783329,0.776144,0.236620,0.786235
454.000000,0.778861,0.765723,0.800072,0.824572,0.796068,0.808731,0.806071,0.337163,0.813952
455.000000,0.785472,0.763612,0.795804,0.821764,0.816402,0.815880,0.786490,0.410732,0.780387
456.000000,0.789083,0.764833,0.792855,0.819034,0.795140,0.797712,0.790081,0.493472,0.791660
457.000000,0.790575,0.766757,0.788710,0.816429,0.784256,0.782404,0.771270,0.290021,0.780641
458.000000,0.783234,0.770715,0.783014,0.812621,0.761728,0.759357,0.743480,0.398017,0.749534
459.000000,0.775555,0.777208,0.779827,0.808744,0.749325,0.773068,0.748611,0.327773,0.775555
460.000000,0.777352,0.781412,0.778251,0.805337,0.795140,0.801750,0.784609,0.317207,0.789371
461.000000,0.775352,0.782217,0.776199,0.801732,0.781050,0.784675,0.778367,0.200519,0.781658
462.000000,0.780353,0.785464,0.775555,0.799099,0.775818,0.799899,0.775887,0.294139,0.805645
463.000000,0.788642,0.785938,0.774805,0.796720,0.801974,0.814282,0.794271,0.375041,0.790982
464.000000,0.786574,0.781065,0.773394,0.793736,0.756581,0.765359,0.761009,0.439342,0.765214
465.000000,0.791609,0.784480,0.774046,0.792030,0.805771,0.819833,0.800000,0.610301,0.814545
466.000000,0.803051,0.789202,0.777017,0.791637,0.803156,0.834217,0.813254,0.439032,0.838871
467.000000,0.810680,0.795516,0.781137,0.790979,0.841377,0.854403,0.848824,0.375173,0.843787
468.000000,0.819461,0.804052,0.787383,0.790027,0.852261,0.860039,0.837879,0.318363,0.834887
469.000000,0.833819,0.810197,0.793702,0.789950,0.831083,0.833291,0.830355,0.228923,0.837006
470.000000,0.836294,0.813952,0.797682,0.790151,0.832602,0.835646,0.832407,0.183793,0.826920
471.000000,0.831005,0.817028,0.799623,0.789809,0.814209,0.819539,0.807781,0.313625,0.812426
472.000000,0.828649,0.819664,0.802564,0.790258,0.812690,0.827319,0.822574,0.213714,0.832005
473.000000,0.825004,0.822233,0.804085,0.790614,0.818512,0.819076,0.818555,0.232807,0.816664
474.000000,0.823173,0.828496,0.804780,0.791761,0.812690,0.826478,0.821633,0.209698,0.827852
475.000000,0.824479,0.830387,0.807433,0.792826,0.833193,0.831020,0.827533,0.205048,0.833446
476.000000,0.830565,0.830785,0.809993,0.794940,0.830661,0.843553,0.840872,0.247510,0.842855
477.000000,0.836633,0.832641,0.814079,0.798305,0.864749,0.866683,0.866097,0.341428,0.862350
478.000000,0.842075,0.833540,0.818796,0.802769,0.853696,0.855749,0.848653,0.220040,0.843872
479.000000,0.840498,0.831836,0.821016,0.806414,0.846102,0.843805,0.827020,0.299316,0.819969
480.000000,0.833277,0.828878,0.821415,0.808080,0.815221,0.812768,0.802565,0.286169,0.797339
481.000000,0.811714,0.821139,0.819084,0.806795,0.735403,0.743797,0.728431,0.507007,0.735040
482.000000,0.787133,0.811883,0.815774,0.805670,0.721566,0.736647,0.715348,0.538661,0.739447
483.000000,0.771436,0.806755,0.814494,0.804975,0.737260,0.768189,0.742796,0.543807,0.765384
484.000000,0.763062,0.801780,0.815138,0.803780,0.773793,0.787282,0.776400,0.334215,0.778098
485.000000,0.761248,0.797262,0.813824,0.804043,0.766031,0.782236,0.767422,0.273657,0.788269
486.000000,0.768079,0.789897,0.810341,0.803294,0.775481,0.774245,0.767678,0.405327,0.769198
487.000000,0.769690,0.778412,0.805526,0.802190,0.751603,0.752797,0.748268,0.464192,0.747500
488.000000,0.767740,0.769588,0.801564,0.802393,0.734053,0.766414,0.741941,0.438785,0.755637
489.000000,0.759247,0.761154,0.796495,0.801062,0.728822,0.733956,0.731424,0.472192,0.735633
490.000000,0.748839,0.755043,0.791961,0.799291,0.735656,0.754984,0.736469,0.310888,0.736226
491.000000,0.741414,0.754747,0.787943,0.797638,0.719794,0.743713,0.727661,0.353907,0.732073
492.000000,0.736582,0.753136,0.782510,0.794895,0.734813,0.741556,0.726336,0.367564,0.723343
493.000000,0.730344,0.749042,0.777899,0.792677,0.707560,0.751871,0.716375,0.444962,0.724445
494.000000,0.737718,0.748483,0.775131,0.792920,0.739200,0.775591,0.736298,0.549685,0.772504
495.000000,0.747194,0.748017,0.772639,0.791888,0.791681,0.793927,0.760154,0.475770,0.783607
496.000000,0.761858,0.751636,0.770766,0.790772,0.789993,0.799815,0.790509,0.420363,0.805391
497.000000,0.778335,0.757459,0.767935,0.789504,0.794887,0.804273,0.801026,0.361118,0.805730
498.000000,0.796881,0.763612,0.766600,0.788913,0.807796,0.818181,0.808380,0.227576,0.817172
499.000000,0.801814,0.769766,0.765460,0.787585,0.806699,0.804441,0.791022,0.161398,0.797169
500.000000,0.804136,0.775665,0.765354,0.786529,0.800709,0.800740,0.798033,0.118322,0.795220
501.000000,0.802967,0.782412,0.768579,0.786099,0.797756,0.800824,0.799059,0.181827,0.799542
502.000000,0.798966,0.788651,0.770893,0.784557,0.788896,0.793422,0.785720,0.180885,0.785726
503.000000,0.791609,0.794245,0.771643,0.783347,0.775987,0.786837,0.775973,0.178197,0.780387
504.000000,0.788540,0.795177,0.771830,0.781813,0.767887,0.782152,0.772638,0.185387,0.781827
505.000000,0.776437,0.790286,0.769152,0.778522,0.759028,0.763563,0.735528,0.330451,0.734701
506.000000,0.759281,0.781124,0.766380,0.774219,0.724266,0.728404,0.707653,0.436239,0.713765
507.000000,0.743991,0.771478,0.764469,0.769116,0.718697,0.721087,0.707311,0.318499,0.709273
508.000000,0.735192,0.763401,0.763507,0.765534,0.714816,0.737236,0.718854,0.312607,0.736396
509.000000,0.727089,0.757815,0.763790,0.762912,0.734222,0.740432,0.735442,0.216064,0.741312
510.000000,0.723411,0.749924,0.762795,0.760211,0.718107,0.717890,0.711415,0.257478,0.716308
511.000000,0.724852,0.742066,0.762239,0.759742,0.716925,0.728909,0.718683,0.291511,0.720970
512.000000,0.731734,0.737862,0.763256,0.759883,0.709332,0.740937,0.715434,0.358528,0.743685
513.000000,0.731141,0.733167,0.763706,0.758818,0.751266,0.752797,0.739205,0.264512,0.733429
514.000000,0.735972,0.731531,0.763354,0.758397,0.732872,0.761502,0.739974,0.293509,0.765469
515.000000,0.744143,0.733777,0.762032,0.757360,0.751687,0.755151,0.748354,0.319523,0.757162
516.000000,0.753433,0.739142,0.760133,0.757301,0.764344,0.768778,0.766823,0.262917,0.767418
517.000000,0.757874,0.744804,0.758141,0.757914,0.771009,0.768610,0.757418,0.239350,0.765893
518.000000,0.765096,0.748118,0.755759,0.758377,0.759956,0.778198,0.766994,0.237319,0.769537
519.000000,0.768520,0.752246,0.755031,0.759942,0.769744,0.777105,0.770842,0.183653,0.782590
520.000000,0.774741,0.759442,0.754683,0.761677,0.775734,0.794095,0.779136,0.282776,0.788269
521.000000,0.770605,0.762019,0.752043,0.762166,0.779025,0.779595,0.750423,0.309040,0.746737
522.000000,0.768147,0.763011,0.750437,0.763175,0.751941,0.752040,0.741855,0.277732,0.753602
523.000000,0.765164,0.765130,0.749148,0.764180,0.743841,0.757591,0.747328,0.399837,0.754619
524.000000,0.765486,0.767003,0.749267,0.764570,0.767719,0.778619,0.765541,0.300575,0.784201
525.000000,0.771097,0.772919,0.753348,0.765661,0.799190,0.823282,0.809320,0.476734,0.816325
526.000000,0.783116,0.776860,0.758001,0.765709,0.796490,0.820338,0.799829,0.528256,0.806832
527.000000,0.795457,0.781802,0.763303,0.766028,0.807543,0.818277,0.813681,0.299563,0.815308
528.000000,0.806916,0.786040,0.767079,0.765853,0.818343,0.817647,0.817187,0.283570,0.811917
529.000000,0.812731,0.789108,0.770677,0.766390,0.815052,0.817815,0.818982,0.227481,0.813273
530.000000,0.810951,0.791024,0.775233,0.766797,0.815474,0.813273,0.802394,0.230607,0.807425
531.000000,0.807578,0.795347,0.778683,0.766477,0.791765,0.791404,0.787944,0.338946,0.789964
532.000000,0.805221,0.800339,0.781675,0.767071,0.801215,0.801077,0.799230,0.211133,0.803526
533.000000,0.807137,0.807027,0.786078,0.768441,0.809484,0.815628,0.814451,0.222587,0.821495
534.000000,0.808052,0.810392,0.788697,0.769642,0.810665,0.813105,0.817871,0.226645,0.817850
535.000000,0.808137,0.809544,0.791232,0.772080,0.799949,0.811591,0.808038,0.242686,0.807849
536.000000,0.809154,0.808366,0.792613,0.774790,0.731353,0.796871,0.740316,1.000000,0.795050
537.000000,0.802848,0.804035,0.792918,0.776880,0.785437,0.786105,0.770158,0.424882,0.771995
538.000000,0.794389,0.800763,0.793401,0.778307,0.759872,0.774666,0.763147,0.294465,0.779200
539.000000,0.786116,0.797084,0.793096,0.779480,0.783412,0.782236,0.780333,0.225611,0.776488
540.000000,0.782251,0.795194,0.793109,0.781887,0.772359,0.784338,0.780590,0.309799,0.788523
541.000000,0.776030,0.792592,0.793969,0.783319,0.774637,0.775927,0.766225,0.290492,0.763943
542.000000,0.773724,0.788286,0.794313,0.783879,0.764681,0.762974,0.763489,0.205410,0.760468
543.000000,0.768859,0.781624,0.794325,0.784593,0.751603,0.750273,0.744592,0.286248,0.754874
544.000000,0.766757,0.776437,0.793414,0.784610,0.750759,0.766338,0.757589,0.234520,0.765977
545.000000,0.762451,0.772351,0.790948,0.784938,0.761053,0.764993,0.757161,0.210079,0.766994
546.000000,0.761536,0.768783,0.788574,0.784670,0.758100,0.761376,0.764173,0.143883,0.759366
547.000000,0.759586,0.766655,0.785345,0.784164,0.750253,0.757002,0.754425,0.217508,0.750720
548.000000,0.757315,0.763087,0.781925,0.783297,0.743166,0.750693,0.749380,0.184323,0.743516
549.000000,0.750229,0.758493,0.777789,0.781562,0.733041,0.744974,0.736640,0.260268,0.730548
550.000000,0.743550,0.753001,0.774097,0.779740,0.729160,0.734881,0.734331,0.212698,0.733599
551.000000,0.736972,0.749254,0.770923,0.779064,0.734475,0.733367,0.732108,0.163343,0.726479
552.000000,0.731582,0.745584,0.766935,0.778070,0.718866,0.720484,0.719111,0.236350,0.723767
553.000000,0.731887,0.744601,0.763112,0.777750,0.718107,0.740432,0.727319,0.265158,0.745042
554.000000,0.732921,0.741575,0.759006,0.776134,0.732872,0.739928,0.738777,0.203323,0.735718
555.000000,0.739888,0.741719,0.757035,0.774538,0.726291,0.768526,0.735357,0.288333,0.768435
556.000000,0.746364,0.741668,0.755225,0.772939,0.754303,0.756161,0.755537,0.190485,0.758857
557.000000,0.755331,0.743457,0.755056,0.771382,0.757256,0.773278,0.764686,0.320088,0.768605
558.000000,0.757196,0.744541,0.753814,0.769464,0.769912,0.768864,0.761009,0.171323,0.754365
559.000000,0.760654,0.746788,0.752640,0.767455,0.752616,0.756531,0.757931,0.143516,0.753009
560.000000,0.759468,0.749678,0.751339,0.765958,0.756666,0.762427,0.759213,0.196163,0.762502
561.000000,0.762570,0.754467,0.751860,0.765438,0.771937,0.773236,0.771697,0.259981,0.774369
562.000000,0.762367,0.758849,0.752216,0.764240,0.764597,0.766423,0.770757,0.135910,0.767588
563.000000,0.767689,0.762443,0.753522,0.762889,0.773203,0.778030,0.776229,0.186213,0.780980
564.000000,0.772521,0.766588,0.754081,0.761533,0.768900,0.777778,0.776657,0.191411,0.777166
565.000000,0.774657,0.767062,0.754391,0.760377,0.776578,0.785180,0.778623,0.204166,0.773182
566.000000,0.776945,0.769758,0.755713,0.760070,0.761897,0.781983,0.762976,0.246024,0.785811
567.000000,0.784252,0.773309,0.758383,0.761140,0.787715,0.802422,0.797777,0.255320,0.804119
568.000000,0.787862,0.777776,0.761159,0.761801,0.803240,0.807385,0.804788,0.280113,0.799034
569.000000,0.791846,0.782183,0.764486,0.762488,0.801637,0.803936,0.802052,0.175267,0.797084
570.000000,0.799458,0.787057,0.768368,0.763245,0.794043,0.808058,0.804703,0.182453,0.811239
571.000000,0.806035,0.791490,0.772978,0.765070,0.808893,0.812516,0.814451,0.137584,0.818698
572.000000,0.805730,0.794991,0.776920,0.766475,0.816318,0.815039,0.805472,0.166541,0.802594
573.000000,0.809442,0.798652,0.780548,0.768565,0.807121,0.815460,0.815220,0.171517,0.817596
574.000000,0.816087,0.803967,0.785277,0.770710,0.816402,0.827109,0.824540,0.313635,0.830310
575.000000,0.819969,0.809714,0.788388,0.772832,0.825430,0.832282,0.830868,0.217019,0.830649
576.000000,0.821054,0.813545,0.791651,0.774990,0.818765,0.819833,0.824198,0.171349,0.824123
577.000000,0.826225,0.815977,0.794643,0.777581,0.819946,0.832787,0.830953,0.167575,0.828445
578.000000,0.826445,0.817944,0.797860,0.780087,0.825430,0.826983,0.823942,0.173347,0.818698
579.000000,0.826004,0.821046,0.801615,0.783339,0.817921,0.829338,0.823429,0.155107,0.828106
580.000000,0.826462,0.823216,0.805136,0.786650,0.826696,0.834805,0.836597,0.144972,0.832938
581.000000,0.825598,0.823326,0.807408,0.789761,0.826021,0.824039,0.820094,0.168051,0.819800
582.000000,0.824953,0.825589,0.810290,0.793143,0.823068,0.823955,0.825652,0.159535,0.825225
583.000000,0.828123,0.827284,0.812968,0.796126,0.823827,0.831104,0.834887,0.200007,0.834548
584.000000,0.831582,0.828793,0.816380,0.799782,0.828721,0.840945,0.836169,0.208890,0.845398
585.000000,0.832734,0.829598,0.819656,0.802125,0.843739,0.844815,0.842069,0.185309,0.838701
586.000000,0.836430,0.831014,0.822279,0.804772,0.837074,0.849525,0.834630,0.191876,0.838278
587.000000,0.839871,0.832412,0.824195,0.807233,0.836230,0.852553,0.842668,0.391423,0.842431
588.000000,0.833226,0.830675,0.824309,0.808798,0.832771,0.842796,0.808294,0.629574,0.801322
589.000000,0.825326,0.828454,0.824750,0.810561,0.811762,0.814703,0.807952,0.276382,0.805899
590.000000,0.816087,0.824411,0.823813,0.811561,0.810834,0.808310,0.790252,0.278220,0.792507
591.000000,0.806933,0.821682,0.822504,0.812166,0.797165,0.794852,0.791407,0.263474,0.792507
592.000000,0.793745,0.816808,0.821199,0.812463,0.793537,0.792665,0.782086,0.211559,0.776488
593.000000,0.791829,0.812528,0.819906,0.812821,0.774215,0.787198,0.784181,0.185656,0.791744
594.000000,0.785930,0.805628,0.817211,0.812796,0.793453,0.791236,0.777939,0.189927,0.776403
595.000000,0.781234,0.798661,0.814130,0.812658,0.776156,0.774455,0.775374,0.191742,0.769029
596.000000,0.776098,0.791516,0.811265,0.812025,0.762065,0.767432,0.763147,0.174890,0.766825
597.000000,0.776420,0.785082,0.808747,0.811157,0.764090,0.774126,0.768705,0.161540,0.778098
598.000000,0.771080,0.781454,0.806065,0.810024,0.771853,0.770544,0.771569,0.192081,0.765045
599.000000,0.769147,0.777539,0.802996,0.809013,0.764428,0.763058,0.767507,0.199888,0.766740
600.000000,0.770436,0.775835,0.800123,0.807821,0.769237,0.772396,0.775374,0.211856,0.775470
601.000000,0.770080,0.773089,0.797385,0.806032,0.762740,0.768691,0.770158,0.163550,0.765045
602.000000,0.765587,0.771004,0.793906,0.804467,0.753037,0.755404,0.757161,0.209858,0.755637
603.000000,0.763451,0.767266,0.789897,0.802359,0.752025,0.756498,0.756819,0.161482,0.754365
604.000000,0.761231,0.765189,0.785409,0.799870,0.747131,0.751619,0.752458,0.202909,0.755637
605.000000,0.756484,0.763460,0.781060,0.797240,0.754472,0.752965,0.754681,0.211369,0.751738
606.000000,0.753941,0.762011,0.776763,0.794847,0.751097,0.749600,0.753997,0.154509,0.752331
607.000000,0.754992,0.760290,0.772686,0.792595,0.751097,0.759946,0.754254,0.191707,0.760892
608.000000,0.755009,0.759230,0.770342,0.790453,0.755569,0.760956,0.760752,0.115530,0.754450
609.000000,0.752009,0.756620,0.767079,0.787537,0.744431,0.749685,0.746302,0.202018,0.740634
610.000000,0.753687,0.755086,0.765460,0.785110,0.734053,0.762385,0.742351,0.237117,0.760129
611.000000,0.754280,0.754111,0.763600,0.782960,0.754050,0.756666,0.757845,0.147501,0.755298
612.000000,0.753128,0.754060,0.762532,0.780624,0.759534,0.769451,0.761779,0.142432,0.755128
613.000000,0.755501,0.755255,0.761260,0.778349,0.762656,0.762974,0.766652,0.156019,0.766316
614.000000,0.761044,0.756527,0.760858,0.775781,0.767803,0.765834,0.771526,0.123160,0.768351
615.000000,0.760790,0.757239,0.760349,0.773120,0.760715,0.760619,0.762035,0.131893,0.758857
616.000000,0.760976,0.757628,0.759819,0.770385,0.746794,0.755825,0.756734,0.149624,0.756230
617.000000,0.762655,0.757891,0.759091,0.767754,0.751519,0.760051,0.761231,0.122380,0.763519
618.000000,0.760298,0.757900,0.758565,0.766195,0.765103,0.766675,0.756050,0.267531,0.754535
619.000000,0.757179,0.759112,0.757866,0.764423,0.757341,0.758096,0.757076,0.192827,0.752755
620.000000,0.755043,0.757917,0.756501,0.762946,0.744938,0.749600,0.754510,0.230086,0.748178
621.000000,0.753111,0.757044,0.755577,0.761414,0.747553,0.745815,0.747755,0.152315,0.746567
622.000000,0.750924,0.756789,0.755425,0.760618,0.744853,0.747077,0.749551,0.193407,0.752585
623.000000,0.749771,0.755035,0.755145,0.759185,0.747047,0.749180,0.753313,0.202642,0.748771
624.000000,0.747805,0.752492,0.754509,0.758069,0.743925,0.742451,0.746473,0.203281,0.742923
625.000000,0.747449,0.751246,0.754242,0.757315,0.739116,0.746068,0.744592,0.610554,0.746398
626.000000,0.744346,0.748729,0.753179,0.756123,0.733969,0.739675,0.736640,0.215297,0.731056
627.000000,0.742244,0.746584,0.752238,0.754922,0.733969,0.739339,0.738264,0.210971,0.742075
628.000000,0.737888,0.743829,0.750865,0.753653,0.741225,0.738918,0.725438,0.248602,0.726988
629.000000,0.734531,0.741168,0.750140,0.752300,0.725194,0.729246,0.731808,0.144516,0.726140
630.000000,0.729497,0.738473,0.748195,0.750492,0.712875,0.724872,0.718683,0.188051,0.721224
631.000000,0.730293,0.737320,0.747182,0.749491,0.723760,0.732610,0.716802,0.273964,0.735040
632.000000,0.725106,0.733675,0.745232,0.748175,0.726460,0.731096,0.718256,0.250568,0.716138
633.000000,0.724309,0.731098,0.743067,0.747129,0.725532,0.734713,0.728345,0.202541,0.723004
634.000000,0.722394,0.728462,0.740477,0.745827,0.725447,0.729708,0.722103,0.155428,0.716562
635.000000,0.720902,0.725199,0.738223,0.744561,0.713213,0.713180,0.713724,0.205014,0.713765
636.000000,0.718376,0.724335,0.736532,0.743564,0.710429,0.720330,0.719111,0.175357,0.722411
637.000000,0.716274,0.720690,0.733637,0.741722,0.713972,0.716881,0.710133,0.209681,0.705628
638.000000,0.711358,0.717834,0.730831,0.739854,0.706547,0.704853,0.704062,0.215135,0.698423
639.000000,0.704509,0.713451,0.727310,0.737910,0.691613,0.690975,0.686276,0.324868,0.682319
640.000000,0.693863,0.707383,0.722928,0.734591,0.677017,0.674994,0.666268,0.377576,0.660536
641.000000,0.680471,0.699424,0.718372,0.731262,0.658876,0.659265,0.657888,0.365246,0.655450
642.000000,0.668334,0.692304,0.712989,0.727589,0.651198,0.651779,0.647798,0.385668,0.644940
643.000000,0.658027,0.684692,0.707895,0.723609,0.642929,0.646143,0.645319,0.339110,0.646889
644.000000,0.648974,0.676742,0.702602,0.719232,0.642086,0.644125,0.638050,0.313136,0.637057
645.000000,0.640939,0.667401,0.696300,0.714615,0.625211,0.628564,0.623044,0.300887,0.620359
646.000000,0.640125,0.660298,0.692316,0.711121,0.619305,0.652358,0.627619,0.422171,0.651382
647.000000,0.642923,0.655628,0.688159,0.707634,0.645461,0.664564,0.654126,0.340457,0.658925
648.000000,0.646686,0.652356,0.685095,0.704673,0.655164,0.662125,0.656691,0.242998,0.665706
649.000000,0.650127,0.649551,0.681501,0.701390,0.658117,0.658676,0.658401,0.224286,0.654263
650.000000,0.655637,0.648288,0.677835,0.698048,0.642929,0.652957,0.645147,0.274936,0.647906
651.000000,0.655450,0.647788,0.673606,0.694844,0.650354,0.654134,0.652843,0.213136,0.650449
652.000000,0.652653,0.647788,0.670046,0.691256,0.658623,0.664059,0.649508,0.262107,0.644940
653.000000,0.651195,0.648940,0.666816,0.688244,0.638289,0.658928,0.643865,0.359136,0.658417
654.000000,0.645381,0.647754,0.662248,0.684319,0.634914,0.661956,0.624455,0.453694,0.625191
655.000000,0.645092,0.650364,0.658883,0.680988,0.621583,0.643284,0.629500,0.371216,0.646466
656.000000,0.646042,0.650746,0.655522,0.678460,0.633901,0.651274,0.634288,0.319873,0.655196
657.000000,0.652551,0.652602,0.654115,0.676307,0.652379,0.675078,0.654126,0.445906,0.677488
658.000000,0.655942,0.653568,0.652962,0.674586,0.669085,0.677096,0.669859,0.315253,0.675369
659.000000,0.666401,0.655891,0.652721,0.672964,0.670773,0.680293,0.673792,0.209183,0.677488
660.000000,0.672741,0.658917,0.653602,0.671529,0.670773,0.674237,0.674562,0.200575,0.678166
661.000000,0.678013,0.662027,0.654908,0.669746,0.672545,0.677433,0.677897,0.189304,0.681556
662.000000,0.673165,0.662858,0.655323,0.667650,0.673895,0.671840,0.650449,0.327737,0.653246
663.000000,0.668164,0.662053,0.655497,0.665229,0.649848,0.659770,0.655066,0.363242,0.650364
664.000000,0.659569,0.662985,0.655370,0.662494,0.644533,0.651274,0.633775,0.411887,0.634514
665.000000,0.641346,0.657044,0.653704,0.658270,0.590618,0.616368,0.582728,0.503582,0.587049
666.000000,0.620919,0.649466,0.650106,0.653503,0.608336,0.606527,0.583925,0.356269,0.579420
667.000000,0.610612,0.641888,0.647245,0.650040,0.592389,0.597527,0.584865,0.359078,0.601712
668.000000,0.609018,0.638591,0.646080,0.648172,0.615845,0.640087,0.623001,0.381680,0.642397
669.000000,0.613172,0.636371,0.646131,0.647271,0.637023,0.667340,0.644805,0.369872,0.655281
670.000000,0.628513,0.634930,0.646923,0.647378,0.642929,0.665826,0.637623,0.365423,0.663757
671.000000,0.641499,0.631209,0.646618,0.647008,0.641411,0.650349,0.642839,0.337903,0.644346
672.000000,0.652890,0.631751,0.647305,0.647466,0.650186,0.653629,0.640188,0.284449,0.658671
673.000000,0.655704,0.632361,0.647207,0.647785,0.660226,0.674237,0.656605,0.330818,0.656467
674.000000,0.654992,0.634082,0.648534,0.648274,0.643098,0.651358,0.649423,0.250103,0.651721
675.000000,0.653890,0.641202,0.649123,0.649537,0.654573,0.657583,0.645147,0.273887,0.658247
676.000000,0.655433,0.648466,0.648966,0.649559,0.664360,0.667424,0.655579,0.342341,0.652060
677.000000,0.656026,0.654458,0.648173,0.649650,0.654489,0.658087,0.650962,0.255368,0.661638
678.000000,0.655518,0.655611,0.647101,0.649257,0.647570,0.651106,0.648482,0.242136,0.653924
679.000000,0.654738,0.654865,0.645618,0.649042,0.650945,0.648919,0.650192,0.196279,0.647822
680.000000,0.654043,0.653967,0.644448,0.649271,0.650017,0.654386,0.654677,0.194224,0.654772
681.000000,0.659146,0.657289,0.644249,0.650175,0.655417,0.674321,0.662334,0.213743,0.677572
682.000000,0.661858,0.658942,0.645347,0.651184,0.675160,0.682816,0.676528,0.287232,0.675199
683.000000,0.660349,0.657934,0.645147,0.650783,0.665373,0.666078,0.649252,0.322536,0.646381
684.000000,0.660502,0.657620,0.645851,0.651562,0.650101,0.650433,0.648739,0.173088,0.648585
685.000000,0.657061,0.655552,0.648377,0.651266,0.636433,0.644798,0.638649,0.182677,0.637566
686.000000,0.645364,0.652255,0.650360,0.650062,0.634830,0.638616,0.623087,0.206657,0.619088
687.000000,0.634514,0.648186,0.651322,0.648178,0.609939,0.620069,0.611201,0.236361,0.620953
688.000000,0.628632,0.644491,0.650051,0.646231,0.624873,0.624190,0.617272,0.208447,0.616969
689.000000,0.616613,0.638557,0.646711,0.643264,0.605299,0.607189,0.590851,0.244375,0.588490
690.000000,0.607984,0.632522,0.643245,0.640473,0.589436,0.594415,0.591193,0.200526,0.594423
691.000000,0.607578,0.626471,0.641880,0.638323,0.597789,0.613508,0.604275,0.255634,0.617054
692.000000,0.608137,0.621326,0.640134,0.637340,0.622680,0.636555,0.624198,0.304224,0.623750
693.000000,0.615375,0.622004,0.639969,0.637433,0.613145,0.651443,0.612142,0.320479,0.653162
694.000000,0.634396,0.625504,0.641562,0.639069,0.659467,0.687190,0.666952,0.395017,0.683590
695.000000,0.655942,0.631963,0.643757,0.642906,0.681066,0.704264,0.688756,0.360867,0.702153
696.000000,0.674538,0.641058,0.646656,0.647259,0.711863,0.718311,0.702693,0.368982,0.710036
697.000000,0.697339,0.652738,0.650462,0.651794,0.702919,0.734040,0.710304,0.362939,0.737752
698.000000,0.714697,0.665036,0.654764,0.655046,0.737006,0.742703,0.736212,0.308202,0.739956
699.000000,0.723818,0.679107,0.658832,0.657510,0.735066,0.740180,0.726208,0.242752,0.729191
700.000000,0.727954,0.691948,0.662235,0.659479,0.718275,0.725797,0.724669,0.263133,0.722834
701.000000,0.731361,0.702950,0.664710,0.662237,0.717094,0.724535,0.724754,0.175254,0.727072
702.000000,0.731531,0.714435,0.667880,0.664901,0.719710,0.733115,0.726208,0.193246,0.738600
703.000000,0.731870,0.723284,0.672644,0.667740,0.740381,0.740180,0.740145,0.219701,0.741651
704.000000,0.729802,0.726810,0.676157,0.669978,0.727894,0.727311,0.719196,0.225314,0.718851
705.000000,0.729107,0.728530,0.680247,0.672015,0.713550,0.720414,0.717828,0.190174,0.719359
706.000000,0.725716,0.728539,0.684798,0.673950,0.712454,0.712423,0.713211,0.160876,0.710120
707.000000,0.723445,0.727488,0.690113,0.676137,0.714057,0.724788,0.721419,0.155236,0.727242
708.000000,0.719936,0.725903,0.695470,0.678477,0.717938,0.724115,0.720992,0.143140,0.724106
709.000000,0.717528,0.723665,0.701386,0.680443,0.718022,0.717386,0.711843,0.184440,0.706815
710.000000,0.713850,0.721478,0.706713,0.681983,0.690516,0.697704,0.684481,0.274952,0.700966
711.000000,0.715562,0.720639,0.711794,0.683353,0.700135,0.724788,0.704147,0.204642,0.718681
712.000000,0.715087,0.719266,0.716850,0.685009,0.711441,0.722517,0.719367,0.151318,0.724869
713.000000,0.715799,0.717867,0.720576,0.687718,0.723760,0.729077,0.721419,0.168909,0.727666
714.000000,0.720342,0.718935,0.722873,0.690416,0.718360,0.727563,0.724327,0.192561,0.729530
715.000000,0.730090,0.721970,0.725250,0.694154,0.733210,0.752965,0.737751,0.293245,0.749703
716.000000,0.732938,0.724250,0.726394,0.697949,0.746541,0.748255,0.733220,0.209210,0.732921
717.000000,0.734548,0.724818,0.726153,0.701681,0.727978,0.742030,0.730654,0.215263,0.732921
718.000000,0.733565,0.724682,0.725292,0.705207,0.720638,0.744301,0.720222,0.282205,0.722750
719.000000,0.732378,0.726360,0.725013,0.709711,0.725110,0.733283,0.722450,0.205362,0.723597
720.000000,0.729208,0.729649,0.725564,0.714358,0.719035,0.730760,0.724369,0.208270,0.733853
721.000000,0.723868,0.728403,0.724521,0.717331,0.728569,0.739339,0.711330,0.188161,0.706221
722.000000,0.715765,0.725157,0.722211,0.719619,0.694735,0.696022,0.692005,0.182534,0.692405
723.000000,0.710646,0.722105,0.719986,0.721085,0.688913,0.697704,0.688363,0.166413,0.697152
724.000000,0.709663,0.721021,0.719978,0.722255,0.695579,0.713769,0.701154,0.163379,0.718681
725.000000,0.703560,0.716384,0.719177,0.722295,0.711188,0.709143,0.700526,0.176107,0.703340
726.000000,0.706662,0.715265,0.719758,0.722685,0.707391,0.717133,0.709277,0.171232,0.721732
727.000000,0.708290,0.712027,0.718423,0.721444,0.710935,0.711919,0.698965,0.149727,0.700542
728.000000,0.708934,0.709790,0.717236,0.720125,0.700304,0.700395,0.700983,0.159429,0.700373
729.000000,0.705170,0.707417,0.716888,0.719147,0.694904,0.701312,0.701667,0.145223,0.699864
730.000000,0.708832,0.706196,0.717923,0.719108,0.702835,0.720414,0.711073,0.236632,0.721648
731.000000,0.706086,0.706374,0.717389,0.718472,0.710766,0.711834,0.711415,0.162561,0.708001
732.000000,0.705018,0.706654,0.715905,0.717025,0.699291,0.700395,0.700292,0.077430,0.695203
733.000000,0.706374,0.707654,0.714880,0.715876,0.695326,0.711915,0.702864,0.201165,0.707154
734.000000,0.708883,0.707027,0.714024,0.715661,0.704101,0.707629,0.709876,0.135080,0.712409
735.000000,0.701627,0.705230,0.710807,0.714528,0.703088,0.706998,0.687559,0.239539,0.685370
736.000000,0.697322,0.701704,0.708484,0.713740,0.688829,0.693751,0.686191,0.250233,0.686472
737.000000,0.694728,0.699873,0.705950,0.712239,0.669001,0.679956,0.671227,0.254475,0.682234
738.000000,0.682455,0.694414,0.702102,0.709629,0.657104,0.659433,0.637452,0.340130,0.645787
739.000000,0.670690,0.689786,0.698601,0.707854,0.630442,0.655059,0.632150,0.285661,0.653585
740.000000,0.666486,0.684057,0.695126,0.706634,0.653645,0.676255,0.657332,0.287817,0.664350
741.000000,0.661722,0.679522,0.692948,0.704766,0.656767,0.674153,0.661821,0.269413,0.662655
742.000000,0.652229,0.673479,0.690066,0.701763,0.652379,0.668097,0.639248,0.265596,0.634769
743.000000,0.653365,0.667910,0.687782,0.699223,0.627405,0.647910,0.630355,0.312219,0.651466
744.000000,0.653687,0.662189,0.684608,0.696745,0.657864,0.661620,0.658230,0.305153,0.655196
745.000000,0.649313,0.657900,0.681565,0.693171,0.652126,0.652872,0.647456,0.265557,0.642482
746.000000,0.641041,0.651382,0.676543,0.689450,0.636770,0.639078,0.615049,0.327043,0.621292
747.000000,0.635175,0.643702,0.671788,0.685201,0.617533,0.621331,0.610603,0.355084,0.605442
748.000000,0.623970,0.638668,0.666541,0.680957,0.604117,0.604340,0.592582,0.271851,0.595440
749.000000,0.611273,0.632480,0.661133,0.676561,0.593402,0.602069,0.594955,0.280191,0.591710
750.000000,0.607696,0.628505,0.656281,0.672919,0.602430,0.620405,0.605301,0.286509,0.624597
751.000000,0.607900,0.624470,0.651996,0.670122,0.622258,0.622256,0.621206,0.095968,0.622309
752.000000,0.606306,0.620741,0.647110,0.666958,0.605467,0.605434,0.600299,0.213998,0.597474
753.000000,0.607730,0.615850,0.641880,0.663805,0.606480,0.608377,0.603249,0.169594,0.602560
754.000000,0.609086,0.610180,0.636184,0.659798,0.588930,0.597948,0.596323,0.179563,0.598491
755.000000,0.604170,0.605933,0.631916,0.656354,0.591546,0.602153,0.598546,0.166859,0.600017
756.000000,0.597830,0.602865,0.627123,0.651983,0.597368,0.597191,0.588559,0.274603,0.590609
757.000000,0.597220,0.601763,0.622733,0.648446,0.591124,0.593322,0.586319,0.196184,0.594423
758.000000,0.590829,0.599280,0.618974,0.644120,0.577962,0.576163,0.570329,0.354703,0.570605
759.000000,0.582099,0.595592,0.614036,0.639286,0.556193,0.580453,0.557418,0.283578,0.554840
760.000000,0.573165,0.588668,0.608586,0.633743,0.555687,0.558752,0.553826,0.267101,0.555348
761.000000,0.562977,0.580403,0.602437,0.628132,0.555856,0.555640,0.537965,0.286724,0.539668
762.000000,0.550754,0.573987,0.597364,0.622735,0.545478,0.548237,0.524581,0.381347,0.533311
763.000000,0.545414,0.568122,0.591986,0.617294,0.535100,0.543822,0.535186,0.413313,0.543906
764.000000,0.545075,0.563587,0.586883,0.611985,0.545646,0.560266,0.543908,0.381842,0.553145
765.000000,0.540753,0.556959,0.581446,0.606931,0.523203,0.538481,0.521676,0.313374,0.533735
766.000000,0.536193,0.549585,0.576225,0.601277,0.532821,0.535201,0.508593,0.291740,0.516867
767.000000,0.531649,0.541202,0.571482,0.595556,0.503966,0.512070,0.488670,0.568439,0.510595
768.000000,0.530937,0.538176,0.568728,0.592041,0.508269,0.540416,0.507995,0.396304,0.540346
769.000000,0.532226,0.538651,0.567122,0.588908,0.560580,0.567668,0.552971,0.365417,0.559586
770.000000,0.529886,0.535320,0.561994,0.584164,0.545224,0.556397,0.525951,0.250281,0.522038
771.000000,0.538447,0.537320,0.558862,0.580731,0.531556,0.556228,0.532621,0.363024,0.559671
772.000000,0.548330,0.539990,0.556988,0.578239,0.549190,0.571368,0.551432,0.377596,0.560010
773.000000,0.556603,0.543770,0.555946,0.575914,0.584121,0.587013,0.569861,0.360384,0.581709
774.000000,0.565079,0.548652,0.556120,0.574140,0.583615,0.598705,0.590167,0.366453,0.601966
775.000000,0.577793,0.553840,0.555399,0.572244,0.584711,0.588780,0.578794,0.240020,0.585608
776.000000,0.579708,0.559078,0.554331,0.570509,0.565390,0.583481,0.564344,0.291210,0.569249
777.000000,0.586693,0.567511,0.554357,0.570159,0.578890,0.591051,0.567088,0.287724,0.594931
778.000000,0.586371,0.571487,0.554831,0.569647,0.596271,0.600471,0.582642,0.276054,0.580098
779.000000,0.579658,0.572368,0.555509,0.568870,0.571043,0.569266,0.561094,0.294494,0.568401
780.000000,0.578539,0.578166,0.556743,0.567384,0.553999,0.578686,0.553655,0.335649,0.580014
781.000000,0.575877,0.577793,0.557556,0.565172,0.567077,0.571705,0.550150,0.339175,0.555942
782.000000,0.568418,0.577556,0.558773,0.563844,0.552227,0.561696,0.546473,0.228443,0.557637
783.000000,0.563536,0.574953,0.559362,0.562282,0.536787,0.555051,0.539205,0.285905,0.555687
784.000000,0.564621,0.572139,0.560396,0.561460,0.563787,0.578350,0.564173,0.292619,0.573826
785.000000,0.563706,0.571122,0.562481,0.560640,0.580240,0.581125,0.566481,0.199521,0.575437
786.000000,0.572572,0.574224,0.566651,0.560962,0.582180,0.596686,0.578025,0.334182,0.600271
787.000000,0.578793,0.573606,0.570559,0.560773,0.598971,0.599125,0.592903,0.195837,0.588744
788.000000,0.585828,0.574682,0.573084,0.561448,0.578890,0.586509,0.581958,0.181788,0.590863
789.000000,0.593473,0.579047,0.575708,0.563355,0.603611,0.612078,0.603848,0.250680,0.612053
790.000000,0.593694,0.578700,0.578433,0.564062,0.604877,0.603499,0.578452,0.235537,0.576538
791.000000,0.591490,0.582031,0.579912,0.565715,0.567246,0.588275,0.570757,0.221811,0.589252
792.000000,0.589863,0.584328,0.580942,0.567291,0.583783,0.591303,0.574348,0.286230,0.580607
793.000000,0.586116,0.585972,0.580463,0.568232,0.573743,0.586256,0.562121,0.567357,0.572131
794.000000,0.573453,0.583463,0.577801,0.568085,0.568849,0.568256,0.553399,0.403153,0.548737
795.000000,0.568368,0.581031,0.576076,0.568664,0.549274,0.550642,0.534673,0.403710,0.551110
796.000000,0.564096,0.577793,0.576009,0.570365,0.548009,0.564555,0.548440,0.280527,0.567893
797.000000,0.565367,0.577615,0.575610,0.572911,0.564884,0.586004,0.565883,0.355630,0.586964
798.000000,0.571995,0.579056,0.576869,0.575075,0.589858,0.601564,0.587773,0.423875,0.605272
799.000000,0.590185,0.581819,0.580433,0.577745,0.600067,0.635293,0.600428,0.451543,0.639685
800.000000,0.599576,0.583972,0.581336,0.580279,0.629852,0.629489,0.602651,0.349101,0.598067
801.000000,0.608493,0.586294,0.584163,0.582039,0.604033,0.609807,0.596922,0.251216,0.612477
802.000000,0.613612,0.589490,0.586909,0.583791,0.600405,0.612835,0.601154,0.243942,0.612561
803.000000,0.620003,0.595999,0.590986,0.585642,0.617111,0.638321,0.624113,0.229192,0.637227
804.000000,0.618834,0.604509,0.593986,0.586704,0.621920,0.634620,0.626678,0.170659,0.633836
805.000000,0.624004,0.611790,0.596410,0.587981,0.622848,0.625536,0.614793,0.209313,0.623919
806.000000,0.628717,0.618605,0.598199,0.590207,0.627489,0.633106,0.621505,0.260646,0.636040
807.000000,0.635887,0.624750,0.601182,0.591990,0.638373,0.651443,0.642839,0.249756,0.648415
808.000000,0.636650,0.628327,0.603691,0.594022,0.653898,0.653545,0.638136,0.398883,0.641041
809.000000,0.638651,0.628742,0.605281,0.596536,0.632973,0.641938,0.637794,0.155018,0.643838
810.000000,0.642533,0.633268,0.608620,0.598647,0.636095,0.649760,0.644549,0.151726,0.643329
811.000000,0.641346,0.635031,0.610663,0.601119,0.636601,0.643788,0.631381,0.204208,0.630107
812.000000,0.637617,0.636752,0.613121,0.603523,0.611036,0.630078,0.618388,0.193828,0.629768
813.000000,0.635752,0.636201,0.616100,0.606058,0.626898,0.628816,0.628645,0.140684,0.631717
814.000000,0.634887,0.636769,0.620639,0.608247,0.617364,0.636218,0.625395,0.173567,0.639515
815.000000,0.631090,0.636811,0.624301,0.609877,0.644954,0.643452,0.629243,0.221342,0.624343
816.000000,0.628106,0.634726,0.626666,0.610375,0.619980,0.625957,0.618811,0.303110,0.615189
817.000000,0.624275,0.630946,0.627848,0.611104,0.597789,0.609555,0.602053,0.274948,0.610612
818.000000,0.617122,0.626437,0.627382,0.611273,0.611542,0.610901,0.599487,0.184035,0.595948
819.000000,0.608798,0.621843,0.625292,0.610801,0.589690,0.600219,0.595639,0.185428,0.597898
820.000000,0.604662,0.617876,0.625572,0.611705,0.596355,0.603163,0.596494,0.222601,0.603662
821.000000,0.602746,0.615426,0.625229,0.612251,0.597283,0.606275,0.601881,0.160806,0.605611
822.000000,0.605170,0.614723,0.625737,0.613655,0.619052,0.618219,0.619410,0.171333,0.622733
823.000000,0.611443,0.614282,0.625242,0.615494,0.623355,0.628985,0.630184,0.184092,0.627310
824.000000,0.623258,0.616028,0.626399,0.619102,0.628248,0.654639,0.628816,0.295816,0.656976
825.000000,0.634379,0.619520,0.628166,0.622707,0.654826,0.657583,0.652587,0.246418,0.659264
826.000000,0.645160,0.623953,0.629340,0.625761,0.658370,0.661368,0.658401,0.142735,0.659519
827.000000,0.648957,0.627064,0.629005,0.627587,0.653223,0.651190,0.641898,0.257932,0.641719
828.000000,0.654772,0.633107,0.629772,0.629290,0.624705,0.653377,0.629072,0.191910,0.656382
829.000000,0.657518,0.640388,0.631115,0.630324,0.662504,0.674405,0.664386,0.204905,0.670707
830.000000,0.660214,0.647296,0.632586,0.632813,0.659214,0.673396,0.655323,0.217638,0.672741
831.000000,0.662502,0.653831,0.634629,0.634763,0.669760,0.675330,0.673023,0.178566,0.670961
832.000000,0.671334,0.660146,0.637434,0.637207,0.672207,0.687863,0.679735,0.168324,0.685879
833.000000,0.675267,0.665019,0.639651,0.638501,0.678282,0.677265,0.675844,0.151340,0.676047
834.000000,0.681454,0.669486,0.642757,0.640761,0.679337,0.696948,0.683839,0.195524,0.701644
835.000000,0.690168,0.675191,0.647355,0.643841,0.706126,0.718563,0.710047,0.202818,0.716308
836.000000,0.694796,0.678649,0.651301,0.645776,0.707476,0.712844,0.697734,0.174040,0.694101
837.000000,0.697678,0.684506,0.655785,0.647505,0.697857,0.700143,0.692860,0.243877,0.700288
838.000000,0.702797,0.689032,0.661070,0.649525,0.694651,0.698629,0.689867,0.229785,0.701644
839.000000,0.699152,0.690303,0.665346,0.650845,0.687141,0.691648,0.684481,0.201948,0.683421
840.000000,0.690388,0.690278,0.668787,0.651817,0.680138,0.689713,0.673878,0.199778,0.672487
841.000000,0.689320,0.692058,0.672945,0.653772,0.678704,0.696021,0.685336,0.278678,0.688761
842.000000,0.682641,0.690159,0.675153,0.655009,0.665120,0.686769,0.667593,0.271415,0.666893
843.000000,0.675623,0.689210,0.677115,0.656171,0.659889,0.663050,0.658700,0.159431,0.666554
844.000000,0.674097,0.686625,0.678056,0.657380,0.664614,0.671629,0.673064,0.218889,0.675793
845.000000,0.675759,0.683073,0.679132,0.659261,0.669760,0.683058,0.668833,0.170532,0.680793
846.000000,0.674470,0.681895,0.680272,0.661499,0.686720,0.688452,0.680205,0.121900,0.682319
847.000000,0.674419,0.678530,0.681518,0.663367,0.676763,0.681050,0.672082,0.170456,0.666638
848.000000,0.677895,0.676759,0.682895,0.666299,0.671954,0.684751,0.680975,0.160172,0.683929
849.000000,0.681014,0.677556,0.683929,0.669416,0.681741,0.693751,0.687388,0.211477,0.691388
850.000000,0.681166,0.678462,0.684370,0.672012,0.686466,0.690975,0.683027,0.132705,0.681556
851.000000,0.680454,0.677462,0.684760,0.674450,0.667820,0.674489,0.664044,0.197240,0.678759
852.000000,0.684302,0.679361,0.684760,0.676555,0.679970,0.683909,0.680120,0.177844,0.685879
853.000000,0.685286,0.681590,0.685400,0.678607,0.673304,0.688620,0.681744,0.171422,0.688846
854.000000,0.686845,0.683929,0.685277,0.680014,0.690094,0.698797,0.689611,0.177262,0.699186
855.000000,0.691371,0.686269,0.684671,0.681511,0.696085,0.701321,0.703634,0.154946,0.704187
856.000000,0.695135,0.687795,0.684845,0.682780,0.704944,0.706031,0.702950,0.126710,0.697576
857.000000,0.696237,0.690270,0.684400,0.684435,0.691360,0.691900,0.690637,0.112431,0.691388
858.000000,0.696389,0.690837,0.683798,0.685543,0.692119,0.693751,0.693288,0.161072,0.689608
859.000000,0.693440,0.690142,0.683849,0.686000,0.680476,0.683867,0.684053,0.178620,0.684438
860.000000,0.689049,0.690210,0.684336,0.686317,0.674654,0.677769,0.677212,0.110786,0.682234
861.000000,0.684658,0.689897,0.683679,0.686472,0.677017,0.679620,0.676443,0.114253,0.675623
862.000000,0.684150,0.690193,0.684777,0.686571,0.680138,0.684835,0.683796,0.109061,0.688846
863.000000,0.691032,0.693711,0.687650,0.688170,0.691782,0.720246,0.700385,0.233880,0.724021
864.000000,0.698847,0.696143,0.690036,0.688899,0.730678,0.730675,0.728003,0.203226,0.723512
865.000000,0.705781,0.697415,0.691842,0.688919,0.710175,0.718647,0.718256,0.192059,0.716901
866.000000,0.708917,0.696788,0.692291,0.688826,0.703004,0.709395,0.695425,0.159699,0.691304
867.000000,0.709120,0.696635,0.693452,0.688478,0.683345,0.698953,0.688414,0.122206,0.689863
868.000000,0.704984,0.698008,0.694423,0.688535,0.685285,0.698545,0.693202,0.125022,0.703340
869.000000,0.700034,0.699441,0.694791,0.689046,0.698026,0.702666,0.696879,0.115125,0.698763
870.000000,0.692575,0.699178,0.694694,0.689283,0.685538,0.684204,0.678324,0.168061,0.679607
871.000000,0.691439,0.700178,0.695037,0.689179,0.683007,0.685928,0.686960,0.175607,0.685625
872.000000,0.694491,0.701805,0.695999,0.690453,0.694651,0.701405,0.699530,0.172086,0.705120
873.000000,0.697762,0.701373,0.697542,0.692225,0.700219,0.716797,0.708251,0.189472,0.719698
874.000000,0.699729,0.699881,0.698012,0.693318,0.716335,0.715704,0.713382,0.129299,0.708595
875.000000,0.707052,0.699814,0.698614,0.694499,0.715154,0.714694,0.717999,0.129170,0.716223
876.000000,0.707340,0.699390,0.698089,0.694657,0.688323,0.697115,0.690979,0.264536,0.687066
877.000000,0.699542,0.697016,0.696826,0.694640,0.674992,0.679620,0.667892,0.228672,0.666130
878.000000,0.694185,0.695974,0.696991,0.694940,0.680476,0.687779,0.682770,0.166238,0.692914
879.000000,0.693914,0.696821,0.698131,0.695468,0.698616,0.706620,0.704660,0.153635,0.707239
880.000000,0.692083,0.699568,0.699373,0.696319,0.704016,0.706197,0.706627,0.180064,0.707069
881.000000,0.698390,0.702865,0.701521,0.697646,0.706885,0.721087,0.712869,0.143211,0.718596
882.000000,0.705459,0.702500,0.702153,0.698166,0.701316,0.706788,0.698333,0.144775,0.701475
883.000000,0.707171,0.700678,0.701026,0.698587,0.692119,0.699050,0.699957,0.118149,0.701475
884.000000,0.704068,0.698991,0.699436,0.698339,0.707307,0.705358,0.693630,0.114855,0.691727
885.000000,0.702577,0.697330,0.698572,0.698186,0.698954,0.698713,0.697510,0.105988,0.699610
886.000000,0.699390,0.698890,0.699140,0.698356,0.699798,0.705610,0.706285,0.090415,0.702661
887.000000,0.703424,0.704441,0.700729,0.699364,0.713382,0.723021,0.719453,0.153124,0.721648
888.000000,0.705255,0.706213,0.701093,0.700065,0.713719,0.715535,0.706456,0.150515,0.710629
889.000000,0.710375,0.707222,0.702022,0.701161,0.715829,0.714358,0.717230,0.108022,0.717325
890.000000,0.713019,0.707798,0.703683,0.702181,0.713044,0.714105,0.715177,0.132415,0.712833
891.000000,0.713612,0.706501,0.704683,0.703181,0.708066,0.709143,0.707482,0.099815,0.705628
892.000000,0.708357,0.705891,0.704196,0.703399,0.699207,0.699386,0.699957,0.116353,0.695372
893.000000,0.705425,0.705340,0.703009,0.702464,0.687901,0.696947,0.691920,0.115440,0.695965
894.000000,0.700102,0.705238,0.702115,0.701370,0.693132,0.701993,0.694314,0.099510,0.690710
895.000000,0.694813,0.703916,0.700623,0.700353,0.692288,0.691395,0.685678,0.140244,0.686388
896.000000,0.687184,0.700398,0.699644,0.699559,0.678198,0.677601,0.668576,0.229107,0.667486
897.000000,0.684489,0.696423,0.700432,0.699294,0.662082,0.676676,0.667294,0.136383,0.681895
898.000000,0.680539,0.692982,0.699597,0.698390,0.681404,0.689293,0.681018,0.184677,0.676216
899.000000,0.677844,0.688973,0.698097,0.697672,0.672798,0.678863,0.677640,0.135815,0.677233
900.000000,0.679064,0.686938,0.697368,0.698101,0.666554,0.688788,0.674305,0.154527,0.692490
901.000000,0.678979,0.683082,0.694791,0.697483,0.683766,0.682395,0.669175,0.192253,0.667062
902.000000,0.678030,0.681260,0.693575,0.696550,0.669676,0.675919,0.671398,0.162700,0.677149
903.000000,0.682421,0.681480,0.693410,0.695833,0.674992,0.693246,0.681231,0.162533,0.698169
904.000000,0.689778,0.683811,0.694524,0.696013,0.692119,0.709059,0.697734,0.227114,0.714019
905.000000,0.704119,0.691592,0.697754,0.697613,0.735994,0.763479,0.741770,0.477895,0.764197
906.000000,0.724394,0.701687,0.701043,0.700325,0.767550,0.773825,0.773578,0.241192,0.768435
907.000000,0.742177,0.710103,0.703263,0.703656,0.770250,0.768694,0.768705,0.164016,0.766062
908.000000,0.754128,0.718274,0.705628,0.705823,0.766706,0.764320,0.762719,0.142601,0.757925
909.000000,0.764367,0.727072,0.708023,0.707756,0.759956,0.766675,0.761693,0.184417,0.765214
910.000000,0.766130,0.735125,0.711032,0.709954,0.764850,0.768946,0.769560,0.102373,0.773012
911.000000,0.765943,0.745169,0.714125,0.711584,0.772106,0.773572,0.774177,0.149557,0.767503
912.000000,0.765740,0.753958,0.717609,0.713703,0.760969,0.763731,0.759641,0.131856,0.765045
913.000000,0.767096,0.760612,0.721046,0.715811,0.757762,0.762554,0.763574,0.169166,0.764706
914.000000,0.769554,0.766961,0.725386,0.718670,0.766284,0.774666,0.772039,0.220647,0.777505
915.000000,0.770503,0.768317,0.729954,0.721275,0.769237,0.773278,0.775203,0.125174,0.777759
916.000000,0.771555,0.768749,0.735218,0.723611,0.766369,0.772479,0.771868,0.121831,0.772758
917.000000,0.773165,0.769452,0.739778,0.725326,0.765525,0.772563,0.775631,0.159851,0.773097
918.000000,0.774029,0.770563,0.744419,0.727273,0.765862,0.768778,0.774348,0.124674,0.769029
919.000000,0.771521,0.770537,0.748805,0.728861,0.765272,0.764152,0.769560,0.103299,0.764960
920.000000,0.768842,0.769673,0.752399,0.730579,0.765525,0.769695,0.768876,0.087840,0.764367
921.000000,0.768791,0.770173,0.757671,0.732808,0.759197,0.768189,0.766225,0.119157,0.772504
922.000000,0.766859,0.770012,0.761985,0.735077,0.770081,0.771217,0.766481,0.086625,0.763434
923.000000,0.763062,0.768546,0.764579,0.736879,0.757341,0.756161,0.752629,0.145010,0.750042
924.000000,0.760180,0.765850,0.766405,0.738874,0.745106,0.745563,0.747670,0.129571,0.750551
925.000000,0.758027,0.763434,0.765876,0.741114,0.753206,0.752797,0.758316,0.103753,0.753602
926.000000,0.764282,0.766537,0.767643,0.745657,0.761475,0.800740,0.770073,0.397251,0.803780
927.000000,0.771487,0.769173,0.769313,0.749576,0.799696,0.800404,0.804104,0.228638,0.799458
928.000000,0.783251,0.773156,0.771860,0.753998,0.803071,0.806880,0.805130,0.197900,0.808866
929.000000,0.790202,0.775191,0.772864,0.757600,0.796153,0.797965,0.791962,0.161290,0.785303
930.000000,0.797101,0.777564,0.773618,0.760787,0.776662,0.786694,0.781103,0.133751,0.788100
931.000000,0.789591,0.776937,0.773555,0.764093,0.772950,0.774918,0.765541,0.213349,0.766232
932.000000,0.779641,0.775564,0.772788,0.766511,0.758353,0.763899,0.753912,0.196641,0.749703
933.000000,0.772046,0.777649,0.773097,0.768935,0.749663,0.777105,0.756648,0.211245,0.770893
934.000000,0.769198,0.779700,0.772775,0.770837,0.755484,0.769283,0.763318,0.244064,0.771063
935.000000,0.764231,0.780666,0.772050,0.770806,0.773372,0.772731,0.769731,0.200187,0.763265
936.000000,0.764231,0.776911,0.771724,0.770732,0.760715,0.772563,0.769903,0.163262,0.766232
937.000000,0.772826,0.776233,0.772703,0.771619,0.772528,0.788880,0.778965,0.170703,0.792677
938.000000,0.775640,0.773843,0.773500,0.772521,0.798262,0.799058,0.790338,0.163131,0.784964
939.000000,0.773572,0.771385,0.773288,0.772371,0.778350,0.776875,0.764429,0.196967,0.760722
940.000000,0.772233,0.768232,0.772898,0.771823,0.761222,0.762301,0.761094,0.114088,0.756569
941.000000,0.769113,0.766672,0.771805,0.771261,0.743756,0.748591,0.745404,0.157315,0.750636
942.000000,0.769859,0.771343,0.773453,0.772306,0.754809,0.795525,0.757332,0.242679,0.796406
943.000000,0.773996,0.774818,0.776233,0.773671,0.795478,0.806964,0.796409,0.240143,0.805645
944.000000,0.785794,0.779683,0.779691,0.775078,0.806193,0.817562,0.809662,0.214450,0.819715
945.000000,0.797406,0.784819,0.782743,0.776307,0.812268,0.813441,0.812826,0.124104,0.814630
946.000000,0.808561,0.788837,0.782874,0.777428,0.812690,0.810573,0.808082,0.092318,0.806408
947.000000,0.814358,0.792109,0.784171,0.779172,0.813112,0.826983,0.821633,0.175807,0.825394
948.000000,0.817901,0.795948,0.784896,0.780983,0.823068,0.824796,0.824198,0.095823,0.823360
949.000000,0.817444,0.801619,0.786502,0.782732,0.817415,0.818656,0.821291,0.093293,0.817427
950.000000,0.819444,0.808425,0.788329,0.784740,0.820790,0.825132,0.830526,0.105101,0.824631
951.000000,0.820987,0.814774,0.790723,0.786128,0.816318,0.816468,0.818469,0.112401,0.814121
952.000000,0.819156,0.816757,0.794050,0.787888,0.808977,0.813862,0.813596,0.129306,0.816240
953.000000,0.816376,0.817138,0.795978,0.789868,0.805181,0.806880,0.803677,0.120564,0.809459
954.000000,0.813053,0.815248,0.797466,0.791544,0.812268,0.809740,0.802993,0.135249,0.800814
955.000000,0.807103,0.813273,0.799046,0.792920,0.796996,0.798637,0.795651,0.112410,0.794880
956.000000,0.802153,0.811570,0.800203,0.792439,0.801215,0.800404,0.794699,0.146414,0.789371
957.000000,0.800051,0.809603,0.800856,0.792648,0.795309,0.808983,0.803762,0.169347,0.805730
958.000000,0.799051,0.807713,0.801831,0.792502,0.792862,0.803264,0.801796,0.132327,0.804458
959.000000,0.798034,0.805543,0.803581,0.792849,0.794718,0.799226,0.800684,0.146108,0.795728
960.000000,0.797762,0.802433,0.805429,0.793030,0.792946,0.796282,0.789055,0.137507,0.793524
961.000000,0.796983,0.799568,0.807171,0.793671,0.788728,0.792245,0.791535,0.076496,0.785472
962.000000,0.792033,0.796042,0.806399,0.794714,0.774975,0.783077,0.772809,0.175909,0.780980
963.000000,0.786659,0.792855,0.804997,0.794937,0.780543,0.781310,0.780676,0.191695,0.777589
964.000000,0.781438,0.789736,0.802492,0.794889,0.773287,0.791404,0.775374,0.175018,0.769622
965.000000,0.776013,0.786888,0.800081,0.794994,0.764934,0.767348,0.771099,0.128833,0.766401
966.000000,0.773453,0.785218,0.798394,0.795208,0.770503,0.775700,0.768705,0.133602,0.772673
967.000000,0.771419,0.781726,0.795665,0.794479,0.758606,0.772058,0.760496,0.176777,0.770809
968.000000,0.771995,0.779327,0.793520,0.794330,0.766790,0.781226,0.774605,0.222555,0.780471
969.000000,0.773690,0.777564,0.791554,0.794909,0.800456,0.807469,0.782471,0.362644,0.778098
970.000000,0.778793,0.777403,0.789918,0.796087,0.789740,0.787282,0.788457,0.159945,0.791914
971.000000,0.782522,0.777988,0.788778,0.797443,0.783834,0.791488,0.791536,0.127516,0.791321
972.000000,0.786744,0.779081,0.787561,0.797293,0.787631,0.796282,0.791065,0.250821,0.791914
973.000000,0.787676,0.779836,0.786345,0.796610,0.781640,0.788123,0.787174,0.159669,0.785133
974.000000,0.787015,0.780353,0.785044,0.795112,0.776831,0.778367,0.770586,0.125268,0.774792
975.000000,0.785743,0.782268,0.784578,0.794143,0.769406,0.780553,0.770329,0.132049,0.785557
976.000000,0.787795,0.785159,0.785188,0.793982,0.793368,0.798974,0.795639,0.443648,0.801577
977.000000,0.790829,0.788786,0.785256,0.793372,0.797418,0.807636,0.804190,0.219641,0.807086
978.000000,0.790337,0.789007,0.784167,0.792016,0.810834,0.812305,0.787003,0.314484,0.782675
979.000000,0.793287,0.790151,0.783857,0.791086,0.782568,0.792974,0.789910,0.147486,0.789541
980.000000,0.798356,0.792049,0.784726,0.790628,0.801552,0.815880,0.811116,0.248491,0.810900
981.000000,0.799542,0.793668,0.785828,0.790408,0.808218,0.809151,0.798803,0.207027,0.807510
982.000000,0.802560,0.796694,0.787888,0.790606,0.799781,0.821768,0.809235,0.143486,0.822173
983.000000,0.808730,0.799534,0.789685,0.790741,0.813280,0.814240,0.813938,0.081271,0.813528
984.000000,0.809273,0.801280,0.790816,0.790456,0.815390,0.814534,0.797520,0.162248,0.792253
985.000000,0.803797,0.801076,0.791672,0.790077,0.772865,0.785432,0.769560,0.214664,0.783523
986.000000,0.816087,0.807815,0.796487,0.792730,0.821043,0.866936,0.830184,0.541736,0.868961
987.000000,0.829225,0.815893,0.802339,0.795468,0.891917,0.903945,0.887986,0.348206,0.887862
988.000000,0.842380,0.825555,0.807281,0.797963,0.884323,0.887123,0.884053,0.218298,0.879302
989.000000,0.861010,0.835142,0.812646,0.800952,0.884914,0.898393,0.892005,0.314942,0.885404
990.000000,0.880556,0.842177,0.817113,0.803876,0.873439,0.885693,0.876956,0.189465,0.881251
991.000000,0.882268,0.849178,0.821423,0.806945,0.876814,0.882917,0.878068,0.202208,0.877522
992.000000,0.882573,0.855899,0.826297,0.810558,0.877742,0.885272,0.875279,0.331280,0.889388
993.000000,0.887167,0.864774,0.832154,0.814714,0.890904,0.899907,0.900812,0.216760,0.902272
994.000000,0.889490,0.875250,0.838265,0.818961,0.920520,0.919926,0.899480,0.308229,0.897016
995.000000,0.896338,0.888447,0.844762,0.823931,0.902801,0.917907,0.904660,0.209428,0.915494
996.000000,0.897491,0.889880,0.848847,0.827618,0.900186,0.903945,0.889953,0.214654,0.883285
997.000000,0.895779,0.889176,0.852534,0.831285,0.869305,0.883590,0.876785,0.248725,0.880827
998.000000,0.891626,0.889397,0.857476,0.834653,0.878248,0.879721,0.878923,0.476718,0.881505
999.000000,0.887642,0.888566,0.861854,0.837953,0.879767,0.878123,0.881830,0.119839,0.877098
1000.000000,0.879420,0.887879,0.865028,0.840702,0.879177,0.877618,0.878239,0.127560,0.874385
1001.000000,0.876606,0.887049,0.868113,0.843298,0.875380,0.873581,0.874989,0.126598,0.869215
1002.000000,0.875267,0.885523,0.870711,0.846039,0.866267,0.869123,0.871056,0.145719,0.874131
1003.000000,0.871927,0.881777,0.873275,0.848695,0.866520,0.866678,0.868918,0.091338,0.864808
1004.000000,0.870334,0.878988,0.877119,0.851839,0.867533,0.867356,0.874904,0.075516,0.869130
1005.000000,0.867774,0.873597,0.881022,0.854374,0.864749,0.864917,0.866610,0.101491,0.861587
1006.000000,0.865621,0.871114,0.880497,0.856269,0.857239,0.857515,0.859684,0.081234,0.858451
1007.000000,0.862180,0.868724,0.878950,0.857931,0.853442,0.859450,0.861308,0.116589,0.856925
1008.000000,0.864740,0.868334,0.878865,0.861095,0.865930,0.880057,0.870714,0.222198,0.877606
1009.000000,0.866571,0.868452,0.878509,0.864053,0.879598,0.878711,0.880462,0.129422,0.878284
1010.000000,0.870859,0.869317,0.878598,0.866458,0.874367,0.881908,0.884310,0.165118,0.883031
1011.000000,0.877522,0.871571,0.879310,0.869266,0.882636,0.889141,0.886794,0.129444,0.891761
1012.000000,0.880776,0.871478,0.878501,0.870967,0.880189,0.879637,0.879179,0.181057,0.873199
1013.000000,0.880539,0.872639,0.877208,0.873063,0.870992,0.878123,0.879607,0.155962,0.876420
1014.000000,0.882743,0.874657,0.876822,0.876298,0.873777,0.883506,0.878410,0.189637,0.889303
1015.000000,0.884760,0.877810,0.875704,0.879951,0.890229,0.895870,0.896451,0.250061,0.893117
1016.000000,0.885065,0.881293,0.876204,0.880762,0.884576,0.892253,0.891535,0.138131,0.893287
1017.000000,0.889235,0.885006,0.876865,0.880969,0.893942,0.897973,0.901667,0.207743,0.894050
1018.000000,0.892626,0.886582,0.877458,0.881438,0.888795,0.889141,0.895511,0.135310,0.893372
1019.000000,0.893084,0.887913,0.878183,0.881644,0.890145,0.893347,0.893159,0.129844,0.891592
1020.000000,0.893253,0.889007,0.879162,0.882068,0.896304,0.898225,0.900385,0.133180,0.893965
1021.000000,0.889981,0.887523,0.879547,0.882048,0.883564,0.884010,0.883625,0.163012,0.876928
1022.000000,0.886930,0.888083,0.879780,0.881695,0.881623,0.879973,0.879949,0.143479,0.878793
1023.000000,0.884387,0.888507,0.880573,0.880974,0.874367,0.878039,0.882770,0.149772,0.880658
1024.000000,0.883031,0.888057,0.881357,0.880567,0.878333,0.885356,0.888414,0.148409,0.884811
1025.000000,0.878674,0.885964,0.881887,0.879124,0.878839,0.876104,0.878794,0.125446,0.872182
1026.000000,0.874843,0.882412,0.881853,0.878273,0.862217,0.864328,0.851389,0.159272,0.857773
1027.000000,0.871283,0.879107,0.882056,0.877612,0.855130,0.854740,0.855921,0.131007,0.860993
1028.000000,0.866367,0.875377,0.880980,0.876764,0.862217,0.863235,0.855494,0.162106,0.856077
1029.000000,0.858434,0.870732,0.879323,0.875699,0.853358,0.853562,0.846003,0.271077,0.845143
1030.000000,0.855111,0.866893,0.877950,0.875072,0.841039,0.859450,0.848311,0.188460,0.855569
1031.000000,0.852568,0.863706,0.875615,0.874267,0.852177,0.849945,0.850192,0.096477,0.845058
1032.000000,0.845126,0.858205,0.873144,0.872589,0.837411,0.836908,0.814622,0.276087,0.823784
1033.000000,0.840278,0.853323,0.870915,0.871490,0.815052,0.828413,0.814707,0.184420,0.831836
1034.000000,0.840448,0.849441,0.868749,0.870718,0.836146,0.843553,0.841813,0.156672,0.845991
1035.000000,0.841295,0.848203,0.867083,0.870659,0.854117,0.858187,0.859940,0.165341,0.859807
1036.000000,0.842397,0.847483,0.864947,0.870396,0.851417,0.852721,0.856263,0.104115,0.850568
1037.000000,0.849246,0.847186,0.863146,0.870433,0.846524,0.853562,0.846687,0.206743,0.858027
1038.000000,0.853670,0.846974,0.861176,0.869645,0.851417,0.853478,0.858059,0.112084,0.853958
1039.000000,0.854280,0.847364,0.859048,0.868670,0.852683,0.853562,0.853698,0.168824,0.849042
1040.000000,0.850195,0.845745,0.856319,0.867215,0.842980,0.841282,0.841642,0.161821,0.839380
1041.000000,0.848703,0.845550,0.854628,0.865593,0.847199,0.848263,0.850192,0.146512,0.843109
1042.000000,0.842431,0.845838,0.852022,0.864042,0.833277,0.834385,0.833348,0.138978,0.826666
1043.000000,0.837040,0.845355,0.849339,0.862395,0.836905,0.834301,0.825566,0.171937,0.827005
1044.000000,0.830480,0.842380,0.845910,0.859959,0.814377,0.820086,0.817871,0.192176,0.816240
1045.000000,0.828581,0.839388,0.843796,0.857852,0.816571,0.826226,0.823429,0.276030,0.829886
1046.000000,0.824377,0.836540,0.842011,0.855478,0.839521,0.837329,0.814793,0.340923,0.822088
1047.000000,0.828649,0.835540,0.841363,0.853944,0.828974,0.844646,0.838050,0.202110,0.848025
1048.000000,0.830175,0.833607,0.840291,0.851986,0.836821,0.838674,0.839974,0.163238,0.834633
1049.000000,0.834023,0.832251,0.839808,0.850116,0.831083,0.835268,0.838982,0.111086,0.835481
1050.000000,0.837684,0.833133,0.839439,0.848590,0.832096,0.844310,0.836255,0.166257,0.848195
1051.000000,0.841990,0.833184,0.839367,0.847480,0.847114,0.845656,0.849936,0.181014,0.843618
1052.000000,0.833141,0.830895,0.838367,0.844979,0.833699,0.835731,0.807952,0.258508,0.803780
1053.000000,0.828445,0.829310,0.837333,0.842663,0.791174,0.807637,0.795725,0.267169,0.811154
1054.000000,0.822038,0.828030,0.835205,0.839950,0.814209,0.811675,0.803848,0.203210,0.803441
1055.000000,0.813358,0.825521,0.832455,0.837704,0.797249,0.802002,0.799615,0.251325,0.804797
1056.000000,0.804984,0.823487,0.830014,0.835837,0.792524,0.798974,0.794442,0.272544,0.801746
1057.000000,0.808764,0.820953,0.828246,0.834560,0.806109,0.819144,0.809577,0.223977,0.822682
1058.000000,0.808985,0.818715,0.826161,0.833099,0.819777,0.817983,0.818640,0.170344,0.812256
1059.000000,0.811765,0.816901,0.824576,0.832172,0.814546,0.815628,0.817871,0.373540,0.817342
1060.000000,0.813918,0.813638,0.823385,0.830839,0.807881,0.812095,0.814023,0.118209,0.815562
1061.000000,0.813816,0.809400,0.821292,0.829378,0.814124,0.812448,0.805985,0.152054,0.801237
1062.000000,0.809730,0.809247,0.820071,0.828660,0.795984,0.801834,0.803164,0.109231,0.802255
1063.000000,0.808001,0.808493,0.818902,0.827719,0.797165,0.802759,0.803035,0.125811,0.803611
1064.000000,0.805340,0.808552,0.818291,0.826321,0.801046,0.801161,0.806841,0.152997,0.804035
1065.000000,0.800526,0.807222,0.816371,0.824044,0.787631,0.790563,0.795468,0.147576,0.791490
1066.000000,0.801814,0.807815,0.815651,0.822614,0.788896,0.804441,0.799059,0.178833,0.807679
1067.000000,0.805798,0.807764,0.814358,0.821419,0.803071,0.820590,0.808636,0.186319,0.822173
1068.000000,0.809798,0.808900,0.813807,0.820407,0.828468,0.842417,0.830868,0.402231,0.823614
1069.000000,0.814358,0.809849,0.813375,0.819667,0.819946,0.828497,0.826507,0.214156,0.826835
1070.000000,0.820427,0.810476,0.812057,0.819082,0.822646,0.822693,0.820693,0.122145,0.821834
1071.000000,0.825445,0.813629,0.811515,0.818738,0.821549,0.826899,0.820949,0.119478,0.832768
1072.000000,0.826428,0.816113,0.812680,0.818752,0.838677,0.845572,0.831295,0.204959,0.827089
1073.000000,0.827920,0.818859,0.813676,0.818887,0.826612,0.831104,0.834200,0.105870,0.831073
1074.000000,0.827598,0.820978,0.814765,0.819187,0.828805,0.828329,0.829756,0.153443,0.825225
1075.000000,0.830327,0.825377,0.816299,0.819373,0.828299,0.836319,0.838435,0.155366,0.835481
1076.000000,0.829700,0.827572,0.817694,0.819625,0.827624,0.829422,0.828645,0.102124,0.829632
1077.000000,0.829547,0.827988,0.817876,0.818902,0.825346,0.831693,0.830953,0.122846,0.826326
1078.000000,0.825462,0.826691,0.817795,0.818102,0.820537,0.821936,0.815135,0.173165,0.810646
1079.000000,0.822716,0.825157,0.817503,0.817302,0.807121,0.808563,0.814023,0.122509,0.811493
1080.000000,0.816376,0.823351,0.816914,0.815822,0.802481,0.807217,0.806327,0.107360,0.803780
1081.000000,0.808595,0.819147,0.816388,0.814059,0.800962,0.802591,0.794570,0.166416,0.790727
1082.000000,0.801492,0.815520,0.815816,0.813627,0.791174,0.791488,0.796836,0.146517,0.790812
1083.000000,0.798000,0.811731,0.815295,0.813028,0.784678,0.792750,0.794233,0.128961,0.793185
1084.000000,0.794609,0.808662,0.814820,0.812731,0.796996,0.794516,0.797948,0.116807,0.794541
1085.000000,0.795355,0.805865,0.815621,0.812821,0.791428,0.802675,0.799251,0.121716,0.807510
1086.000000,0.797084,0.802839,0.815206,0.812742,0.796659,0.811591,0.805558,0.114115,0.799373
1087.000000,0.796576,0.799034,0.813511,0.811595,0.789487,0.788123,0.779478,0.207483,0.788269
1088.000000,0.794745,0.796372,0.811532,0.810654,0.792862,0.790394,0.790423,0.086997,0.784031
1089.000000,0.791846,0.793228,0.809192,0.809411,0.780712,0.779796,0.784523,0.143455,0.780047
1090.000000,0.786082,0.790719,0.807035,0.808182,0.778265,0.777525,0.778538,0.179385,0.778691
1091.000000,0.781760,0.789422,0.804285,0.807400,0.772275,0.780133,0.778880,0.187996,0.777759
1092.000000,0.774301,0.785438,0.800479,0.805690,0.768140,0.767432,0.754168,0.292143,0.750975
1093.000000,0.771555,0.783150,0.797440,0.804580,0.751181,0.765918,0.759897,0.251381,0.770300
1094.000000,0.770978,0.781412,0.795037,0.803684,0.762656,0.775002,0.771013,0.199026,0.777166
1095.000000,0.770588,0.778335,0.792100,0.803193,0.779278,0.777525,0.774690,0.192220,0.776742
1096.000000,0.775301,0.778530,0.790685,0.802981,0.784762,0.805535,0.791535,0.280432,0.801322
1097.000000,0.784930,0.779615,0.789324,0.802212,0.800034,0.798404,0.803591,0.138139,0.799118
1098.000000,0.791405,0.781480,0.788926,0.801514,0.794128,0.799142,0.802052,0.182828,0.802678
1099.000000,0.796559,0.783768,0.788498,0.800718,0.812690,0.812936,0.804788,0.336895,0.802933
1100.000000,0.800271,0.785430,0.788074,0.799833,0.800456,0.799563,0.799658,0.143592,0.795304
1101.000000,0.797576,0.786438,0.787930,0.798336,0.787040,0.793170,0.793758,0.128832,0.787845
1102.000000,0.793185,0.789057,0.787248,0.796672,0.778181,0.782362,0.783796,0.203177,0.777166
1103.000000,0.791677,0.791541,0.787345,0.795474,0.779447,0.793927,0.787260,0.198683,0.795135
1104.000000,0.788930,0.792745,0.787078,0.794273,0.794212,0.796997,0.793416,0.107300,0.789202
1105.000000,0.786727,0.793499,0.785917,0.792567,0.785690,0.784759,0.786404,0.120721,0.784285
1106.000000,0.786252,0.791914,0.785222,0.791095,0.779362,0.785516,0.789312,0.155125,0.785472
1107.000000,0.785116,0.789151,0.784383,0.789267,0.778603,0.787451,0.773322,0.148200,0.771487
1108.000000,0.780726,0.786201,0.783840,0.788018,0.770250,0.768862,0.770586,0.107131,0.773182
1109.000000,0.774809,0.781870,0.782819,0.786289,0.763331,0.763647,0.764686,0.169306,0.759620
1110.000000,0.771046,0.778886,0.782158,0.785012,0.750844,0.762133,0.755537,0.210831,0.765469
1111.000000,0.767198,0.776725,0.781582,0.784195,0.764765,0.768610,0.767251,0.151456,0.766232
1112.000000,0.764926,0.775021,0.782039,0.783172,0.759703,0.761881,0.760520,0.143460,0.760129
1113.000000,0.761502,0.771114,0.781327,0.781935,0.751941,0.753890,0.756905,0.127017,0.756060
1114.000000,0.763553,0.769181,0.780963,0.781113,0.751772,0.765918,0.759042,0.172328,0.769876
1115.000000,0.759892,0.765469,0.779484,0.779101,0.761222,0.764909,0.747413,0.242548,0.747161
1116.000000,0.756009,0.761604,0.776759,0.777349,0.739369,0.746909,0.749209,0.187280,0.746821
1117.000000,0.756688,0.760807,0.774979,0.776524,0.745275,0.763815,0.752800,0.241292,0.763519
1118.000000,0.757840,0.759671,0.772936,0.775784,0.769997,0.773656,0.765370,0.204066,0.761824
1119.000000,0.757383,0.760468,0.771169,0.775369,0.759787,0.762890,0.765370,0.137727,0.767588
1120.000000,0.758705,0.759298,0.769092,0.774538,0.759619,0.757423,0.751090,0.217060,0.753772
1121.000000,0.756891,0.756450,0.766588,0.773204,0.749747,0.749853,0.740231,0.233483,0.737752
1122.000000,0.754246,0.755467,0.765244,0.773182,0.738863,0.745143,0.744506,0.255160,0.750297
1123.000000,0.751178,0.754509,0.762811,0.772388,0.745613,0.748675,0.752116,0.133567,0.746482
1124.000000,0.746584,0.751983,0.760582,0.771303,0.732281,0.742619,0.734331,0.201906,0.744618
1125.000000,0.743516,0.751110,0.758290,0.770026,0.743334,0.749979,0.740787,0.246943,0.738430
1126.000000,0.744618,0.750754,0.756179,0.768091,0.736922,0.748843,0.740744,0.179664,0.743262
1127.000000,0.743380,0.748813,0.754810,0.766257,0.739200,0.742115,0.745703,0.199860,0.744109
1128.000000,0.742227,0.746703,0.753187,0.764192,0.742828,0.741778,0.742369,0.136389,0.740719
1129.000000,0.742482,0.744533,0.752500,0.762290,0.744094,0.747161,0.749722,0.209245,0.745889
1130.000000,0.745703,0.744609,0.751954,0.760931,0.744009,0.753133,0.748126,0.241309,0.754535
1131.000000,0.749619,0.747118,0.751784,0.760098,0.754894,0.764656,0.763574,0.218333,0.762841
1132.000000,0.754246,0.748813,0.752140,0.759767,0.762234,0.767264,0.763147,0.222891,0.767249
1133.000000,0.762689,0.752458,0.753484,0.759360,0.767803,0.783581,0.774006,0.128463,0.782929
1134.000000,0.766588,0.754535,0.753259,0.758566,0.774722,0.775423,0.769218,0.145601,0.765384
1135.000000,0.765926,0.755815,0.753462,0.757465,0.763837,0.764068,0.755921,0.176133,0.751229
1136.000000,0.763282,0.756450,0.753602,0.756269,0.743081,0.745227,0.744250,0.203949,0.749619
1137.000000,0.761756,0.758001,0.753407,0.755874,0.743588,0.755152,0.752458,0.110523,0.759620
1138.000000,0.758807,0.760748,0.753725,0.755707,0.756159,0.765329,0.760325,0.134724,0.768181
1139.000000,0.759264,0.762926,0.753729,0.755976,0.771684,0.776348,0.773065,0.169499,0.767672
1140.000000,0.764655,0.765291,0.754950,0.756399,0.762487,0.773152,0.772723,0.132366,0.778183
1141.000000,0.770470,0.766876,0.756997,0.756815,0.776072,0.776853,0.783155,0.094925,0.778691
1142.000000,0.774335,0.768045,0.758429,0.757442,0.770418,0.774918,0.780761,0.221017,0.778946
1143.000000,0.776148,0.767478,0.759968,0.758148,0.778350,0.777610,0.780248,0.117683,0.777250
1144.000000,0.782489,0.770876,0.762706,0.759131,0.772528,0.795273,0.782899,0.210762,0.799373
1145.000000,0.785625,0.775140,0.765477,0.760688,0.801552,0.805282,0.800086,0.218289,0.793863
1146.000000,0.787388,0.778929,0.767689,0.762044,0.787968,0.788965,0.789910,0.142686,0.787506
1147.000000,0.789778,0.782056,0.770029,0.762957,0.784846,0.796366,0.794357,0.138576,0.790897
1148.000000,0.795152,0.785650,0.773199,0.764367,0.799696,0.804517,0.807525,0.150470,0.804119
1149.000000,0.795898,0.789193,0.776060,0.765551,0.807121,0.808310,0.809320,0.153197,0.803102
1150.000000,0.799830,0.792728,0.779009,0.767543,0.798346,0.807385,0.806327,0.140011,0.813528
1151.000000,0.804085,0.795737,0.781306,0.769910,0.810074,0.815039,0.812569,0.159352,0.808781
1152.000000,0.807188,0.798483,0.783264,0.771781,0.000000,0.806628,0.000000,0.160401,0.806408
1153.000000,0.806493,0.800822,0.784150,0.773586,0.800793,0.803936,0.804190,0.203504,0.800644
1154.000000,0.802373,0.799135,0.785006,0.774849,0.781471,0.784591,0.768277,0.286833,0.782506
1155.000000,0.790371,0.795101,0.785120,0.775352,0.779531,0.778030,0.750406,0.337078,0.753518
1156.000000,0.781946,0.793016,0.785972,0.776132,0.749409,0.767432,0.757247,0.202982,0.766655
1157.000000,0.772673,0.789930,0.785993,0.776663,0.758437,0.758937,0.759726,0.208036,0.760044
1158.000000,0.767062,0.786777,0.786214,0.777725,0.757762,0.776768,0.767080,0.204990,0.772589
1159.000000,0.763723,0.783048,0.786121,0.778389,0.772190,0.776768,0.771868,0.176052,0.765808
1160.000000,0.764096,0.777233,0.784981,0.778417,0.764681,0.765077,0.760068,0.180778,0.755382
1161.000000,0.760841,0.771393,0.783565,0.778002,0.752194,0.753217,0.751903,0.153843,0.750381
1162.000000,0.757993,0.765333,0.781908,0.777287,0.750337,0.748928,0.750150,0.132864,0.745804
1163.000000,0.750992,0.759027,0.779925,0.775776,0.740381,0.739423,0.737495,0.238616,0.737583
1164.000000,0.741888,0.752806,0.775971,0.774272,0.735994,0.733703,0.725438,0.186166,0.720292
1165.000000,0.732158,0.748127,0.771614,0.772789,0.715322,0.715199,0.712869,0.184030,0.706730
1166.000000,0.724631,0.742736,0.767876,0.771560,0.703257,0.711077,0.712185,0.147286,0.712748
1167.000000,0.717342,0.737667,0.763799,0.769885,0.707138,0.709227,0.713211,0.134644,0.709358
1168.000000,0.712629,0.731810,0.759294,0.768079,0.707982,0.710993,0.716973,0.104197,0.714019
1169.000000,0.712850,0.727369,0.755209,0.766537,0.710091,0.721003,0.717914,0.124328,0.721393
1170.000000,0.714952,0.723555,0.750394,0.764505,0.715491,0.716124,0.721077,0.107468,0.717240
1171.000000,0.715664,0.720147,0.745770,0.762426,0.717263,0.716797,0.722189,0.118360,0.716308
1172.000000,0.715172,0.716257,0.740795,0.760024,0.711694,0.710068,0.703292,0.127256,0.706899
1173.000000,0.713324,0.712977,0.736002,0.757609,0.697098,0.700143,0.701069,0.124294,0.704780
1174.000000,0.710883,0.711866,0.732336,0.754602,0.699629,0.706367,0.703891,0.120202,0.709188
1175.000000,0.711510,0.713231,0.730679,0.752153,0.708741,0.716461,0.714921,0.257132,0.720376
1176.000000,0.713443,0.714553,0.728645,0.750102,0.717179,0.722138,0.723301,0.126249,0.725971
1177.000000,0.717630,0.716401,0.727034,0.748000,0.724941,0.729077,0.729029,0.142259,0.727835
1178.000000,0.725598,0.719461,0.725636,0.746016,0.731691,0.739886,0.739290,0.139186,0.744618
1179.000000,0.733955,0.722419,0.724894,0.744279,0.740381,0.746404,0.747336,0.149263,0.750975
1180.000000,0.736989,0.724250,0.723902,0.741679,0.741394,0.740769,0.736041,0.143834,0.735548
1181.000000,0.740854,0.727149,0.723648,0.739563,0.734981,0.740096,0.739461,0.153371,0.745296
1182.000000,0.745262,0.731446,0.723852,0.737679,0.741225,0.746488,0.747584,0.156453,0.749873
1183.000000,0.750771,0.738184,0.725581,0.736729,0.753628,0.766339,0.761608,0.169050,0.772165
1184.000000,0.756162,0.745058,0.728462,0.736577,0.772022,0.781803,0.779564,0.183508,0.777928
1185.000000,0.767079,0.752034,0.732633,0.737797,0.779868,0.784675,0.785464,0.217198,0.790134
1186.000000,0.775759,0.758306,0.736430,0.738532,0.782737,0.785432,0.789910,0.127844,0.788693
1187.000000,0.783658,0.764460,0.740431,0.739510,0.785353,0.787619,0.792732,0.111046,0.789371
1188.000000,0.788879,0.769825,0.744643,0.740366,0.789571,0.793002,0.793673,0.202021,0.798271
1189.000000,0.792456,0.774309,0.748364,0.741366,0.790246,0.794348,0.796409,0.143378,0.795813
1190.000000,0.794711,0.780895,0.752572,0.742900,0.791174,0.796114,0.799059,0.122598,0.801407
1191.000000,0.800203,0.787981,0.757565,0.745092,0.801552,0.814198,0.810090,0.168256,0.816155
1192.000000,0.806543,0.795101,0.763273,0.747601,0.809906,0.820086,0.816332,0.157964,0.821071
1193.000000,0.811866,0.800373,0.769279,0.750511,0.817584,0.820170,0.823258,0.113349,0.824886
1194.000000,0.816833,0.804645,0.774852,0.753857,0.822224,0.827403,0.827790,0.159671,0.820648
1195.000000,0.820546,0.807628,0.779831,0.757631,0.816149,0.819665,0.821291,0.107634,0.819969
1196.000000,0.822055,0.811129,0.784718,0.761330,0.805940,0.817394,0.811201,0.113219,0.823699
1197.000000,0.821427,0.813985,0.789223,0.764949,0.818259,0.821852,0.824968,0.114250,0.817935
1198.000000,0.819749,0.815808,0.792817,0.768365,0.815474,0.815712,0.820671,0.080717,0.816494
1199.000000,0.819291,0.818062,0.796186,0.771597,0.814209,0.816469,0.822146,0.112279,0.818359
1200.000000,0.818359,0.819452,0.800174,0.774866,0.808218,0.810329,0.816246,0.084964,0.815308
1201.000000,0.817206,0.819630,0.803806,0.778253,0.814462,0.816048,0.821804,0.100679,0.817935
1202.000000,0.817681,0.819554,0.807328,0.782034,0.819271,0.822861,0.826849,0.117824,0.820309
1203.000000,0.817359,0.818554,0.809463,0.785704,0.816487,0.816890,0.821206,0.005369,0.814884
1204.000000,0.817528,0.818410,0.811527,0.789371,0.810665,0.814955,0.818469,0.116351,0.819207
1205.000000,0.818257,0.818308,0.812968,0.792657,0.822646,0.821137,0.823429,0.104571,0.818952
1206.000000,0.819461,0.818334,0.814731,0.795923,0.819524,0.819939,0.827191,0.111077,0.823953
1207.000000,0.820597,0.819139,0.816562,0.799195,0.820537,0.822357,0.825652,0.090744,0.825987
1208.000000,0.821478,0.819419,0.817613,0.801684,0.822983,0.828160,0.825737,0.109217,0.819291
1209.000000,0.819969,0.818749,0.818406,0.803707,0.807374,0.813273,0.815391,0.100367,0.811663
1210.000000,0.820342,0.819300,0.819376,0.806549,0.808134,0.816217,0.815904,0.117463,0.820817
1211.000000,0.819936,0.819698,0.819664,0.809103,0.819018,0.820002,0.826593,0.128236,0.821919
1212.000000,0.818291,0.819444,0.819499,0.811366,0.824333,0.824039,0.822830,0.117243,0.817766
1213.000000,0.817427,0.819452,0.819003,0.812793,0.812690,0.814787,0.818042,0.104857,0.814969
1214.000000,0.819393,0.819681,0.819046,0.814245,0.813787,0.817478,0.818640,0.106025,0.821495
1215.000000,0.822156,0.821249,0.819779,0.815729,0.811762,0.829002,0.819496,0.155825,0.834633
1216.000000,0.826496,0.823216,0.820775,0.817559,0.832433,0.838506,0.840359,0.187633,0.843618
1217.000000,0.832243,0.825267,0.822203,0.819464,0.837411,0.844562,0.847029,0.175166,0.846499
1218.000000,0.842651,0.830039,0.824729,0.821755,0.850405,0.861889,0.826935,0.211611,0.867011
1219.000000,0.852873,0.836133,0.827441,0.824315,0.855299,0.866263,0.866781,0.159022,0.872606
1220.000000,0.863095,0.842626,0.830963,0.827126,0.875802,0.883758,0.883369,0.218395,0.885743
1221.000000,0.875691,0.851093,0.835396,0.830141,0.887192,0.901590,0.898333,0.252088,0.906594
1222.000000,0.886235,0.859239,0.839341,0.832746,0.905754,0.908007,0.902522,0.215246,0.899220
1223.000000,0.889693,0.866172,0.842812,0.834726,0.890229,0.889814,0.887559,0.183391,0.884302
1224.000000,0.892795,0.872834,0.846258,0.836975,0.876055,0.886870,0.885507,0.163418,0.888117
1225.000000,0.892931,0.878013,0.849631,0.839190,0.881961,0.884179,0.882514,0.181091,0.886421
1226.000000,0.888693,0.882192,0.852704,0.841247,0.879177,0.883169,0.887046,0.097575,0.885404
1227.000000,0.882556,0.884396,0.854831,0.842934,0.876223,0.875263,0.875246,0.129983,0.868537
1228.000000,0.877522,0.883607,0.856823,0.844355,0.853696,0.860710,0.855750,0.179725,0.859129
1229.000000,0.871843,0.882319,0.859226,0.845734,0.854624,0.859282,0.861992,0.108524,0.859722
1230.000000,0.866859,0.879895,0.861260,0.847274,0.858589,0.859702,0.864558,0.138999,0.861502
1231.000000,0.861739,0.875216,0.863155,0.848669,0.855383,0.857936,0.861052,0.088838,0.859807
1232.000000,0.860366,0.871461,0.865350,0.850048,0.863145,0.863150,0.866481,0.217232,0.861671
1233.000000,0.860756,0.869139,0.867656,0.851588,0.864074,0.864833,0.868234,0.142103,0.861078
1234.000000,0.861146,0.866494,0.869664,0.853003,0.861374,0.862562,0.866866,0.048899,0.861671
1235.000000,0.858061,0.862460,0.870236,0.853907,0.856986,0.856128,0.848397,0.157784,0.846076
1236.000000,0.855348,0.858544,0.870368,0.854651,0.841630,0.842628,0.847456,0.109043,0.846245
1237.000000,0.853382,0.856874,0.870635,0.855512,0.840027,0.845572,0.848653,0.145675,0.851839
1238.000000,0.854619,0.857688,0.870648,0.857111,0.852177,0.864076,0.863617,0.223939,0.867266
1239.000000,0.856738,0.858942,0.870631,0.859131,0.871752,0.878291,0.869260,0.184454,0.872266
1240.000000,0.858824,0.858442,0.869169,0.860321,0.866436,0.866599,0.863531,0.129718,0.856501
1241.000000,0.860620,0.857984,0.866600,0.861431,0.849561,0.856001,0.859513,0.109514,0.855230
1242.000000,0.857840,0.855611,0.863536,0.862104,0.847368,0.844899,0.842163,0.148185,0.837939
1243.000000,0.853433,0.854026,0.861582,0.863112,0.834374,0.839684,0.842326,0.090333,0.845228
1244.000000,0.849161,0.852950,0.859722,0.864093,0.846102,0.847338,0.852929,0.080955,0.850907
